n,t,ecg,ppg,rip
0,0.0,-0.10376936825580987,-0.3768393993800791,-0.2596991756424109
1,0.01,-0.10044016921089796,-0.37585933632561913,-0.2515751126870989
2,0.02,-0.08099875775546996,-0.379526282099322,-0.2432016395636264
3,0.03,-0.07813977578440963,-0.3848027613685131,-0.23508981608650223
4,0.04,-0.058126759499123194,-0.3878589800225002,-0.2250443764014534
5,0.05,-0.06344807234067468,-0.3946057012741144,-0.2169877232619883
6,0.06,-0.05711831535251872,-0.3868299782129133,-0.2084233531364462
7,0.07,-0.07218104972082838,-0.38266363029194617,-0.20085385698828548
8,0.08,-0.07963663329871942,-0.36330509059330346,-0.19057547704559927
9,0.09,-0.11255080533383492,-0.33487556784593286,-0.182357821467355
10,0.1,-0.11769135880519606,-0.2747878381748366,-0.1723055826092314
11,0.11,-0.13384695285249779,-0.2362833032455339,-0.16257581755288134
12,0.12,-0.13502810898819695,-0.14752000107930852,-0.15138685335013696
13,0.13,-0.1486527809178266,-0.03895369919388527,-0.1412174177679865
14,0.14,-0.14228919554086675,0.10710839455828923,-0.13078675960683742
15,0.15,-0.14733836119555702,0.19995622552580788,-0.11994924703176475
16,0.16,-0.14986824407535326,0.33532085404190654,-0.10857419050170741
17,0.17,-0.15070535105277336,0.48557278995497016,-0.09789486047032359
18,0.18,-0.13854941881706886,0.6128226250951496,-0.08533022223135162
19,0.19,-0.15061980778987652,0.6890483551626956,-0.07340820691100569
20,0.2,-0.1387381836020638,0.76323712342307,-0.062352926869887935
21,0.21,-0.14133843956302058,0.8412532476292213,-0.05062596418141998
22,0.22,-0.1337049915070576,0.8746214857715457,-0.037819787340438296
23,0.23,-0.13925965878120958,0.899103118394972,-0.026272331616445977
24,0.24,-0.13568373665181876,0.8974488703226403,-0.01261909356848413
25,0.25,-0.14011644670187412,0.9034514278324192,-0.000985109779377877
26,0.26,-0.12715640226764077,0.8827516564316628,0.010759972593044762
27,0.27,-0.1396041013428306,0.8800532824593594,0.023890768350415197
28,0.28,-0.12741333527099513,0.8547806971723068,0.03716895628856222
29,0.29,-0.13370147701427942,0.8386247776066883,0.050547959487511014
30,0.3,-0.12616289475788608,0.8079493716257099,0.06349312385051234
31,0.31,-0.12814268852796315,0.7995706303286423,0.07707887083682957
32,0.32,-0.1291010741049495,0.7728665152019478,0.09015861558213432
33,0.33,-0.13535655962730037,0.7535286803070272,0.1035663513645823
34,0.34,-0.12984006004460288,0.7147771809181156,0.11584270325813438
35,0.35,-0.1361927199488779,0.6967851478389783,0.12913731729228478
36,0.36,-0.1323778364319763,0.6556955632068513,0.1417583304866432
37,0.37,-0.1422829232190273,0.6193456185063428,0.1553067608745706
38,0.38,-0.13945278404215847,0.5711650923931209,0.16745735282390706
39,0.39,-0.14136038975717963,0.5470787332761651,0.1803265672595842
40,0.4,-0.1316829204229404,0.5086522366638129,0.1934475545770058
41,0.41,-0.13270105639131594,0.4784084008775715,0.20462296026214355
42,0.42,-0.1410152027034934,0.4548157662670777,0.21554231878502036
43,0.43,-0.14088696584277646,0.4473588153147735,0.22795908217483307
44,0.44,-0.13010644811139416,0.43479006346178,0.23999551267382177
45,0.45,-0.1376096494327729,0.4281059238267489,0.2506426351486514
46,0.46,-0.13432379369564657,0.4147529941623515,0.2609818221677526
47,0.47,-0.1418743173461911,0.409184393958635,0.2697937455792132
48,0.48,-0.13719631109318023,0.3875500914857612,0.27852842547406603
49,0.49,-0.1367242670134507,0.3658464262620524,0.2864908018298802
50,0.5,-0.09908026099799502,0.33322208917458346,0.2940865664451876
51,0.51,-0.10317193179844211,0.3175281195875779,0.2988825042509544
52,0.52,-0.10805706566312137,0.2829794740742955,0.30453993105415356
53,0.53,-0.11646339645013862,0.2534467830453176,0.31008464952636605
54,0.54,-0.10022675856589909,0.21579247664817783,0.31383280631218546
55,0.55,-0.11465434600757914,0.19596907720411869,0.3189531450311636
56,0.56,-0.12604487157266842,0.16624670652108794,0.3233073001845873
57,0.57,-0.15479537656169068,0.13302145432005474,0.32665278152887517
58,0.58,-0.1464723822718238,0.09703243678639775,0.32860700111705804
59,0.59,-0.15166594681434828,0.07912026673014233,0.33276720720048725
60,0.6,-0.13752382647739103,0.05188346310188854,0.3353154889945437
61,0.61,-0.14728394692480615,0.026539620705923472,0.3388180213386262
62,0.62,-0.13706630836373843,-0.0035806224808431174,0.3417447447805496
63,0.63,-0.14610953902299242,-0.021644543927351666,0.3440755427096968
64,0.64,-0.1313174946967055,-0.05700177073282506,0.34608157901467923
65,0.65,-0.16506624055062463,-0.09151409406827991,0.34885418597940704
66,0.66,-0.2925606153002338,-0.12834912819829572,0.3528167158239186
67,0.67,-0.21987946386684104,-0.1495399390082008,0.356094276010417
68,0.68,0.3999289990593018,-0.17467513129450354,0.36100421752064143
69,0.69,0.7690158618157907,-0.19789284449083233,0.36488053706094503
70,0.7,0.21334635442930225,-0.2139188924212457,0.3699705998706451
71,0.71,-0.24800969502139728,-0.2227246634334443,0.37450339785033543
72,0.72,-0.3641523390407629,-0.2264792273597143,0.3798679236996054
73,0.73,-0.1738774067913118,-0.2332351476765839,0.38444716864890527
74,0.74,-0.12398836802539885,-0.2385517643535911,0.39027708255263216
75,0.75,-0.12426850885362825,-0.24307834322936514,0.39591388004578926
76,0.76,-0.12279630663405884,-0.25366329805112064,0.3985027676985401
77,0.77,-0.11889601824712379,-0.2654347462952928,0.40292063488288254
78,0.78,-0.12199026009840583,-0.27721910582969145,0.4075591550986495
79,0.79,-0.1121432238369721,-0.28525757610071906,0.41138089432442915
80,0.8,-0.11690182793145705,-0.3008205048690091,0.4150358459837626
81,0.81,-0.11122026851816903,-0.3213674663241239,0.4182025916083166
82,0.82,-0.11282499213290323,-0.3383656385163678,0.42130788805554836
83,0.83,-0.10540714817333227,-0.346989707675806,0.4248652550293803
84,0.84,-0.11105125456706517,-0.3569092152163568,0.42802365314712987
85,0.85,-0.11029308943703574,-0.3689375846695514,0.4304111249072495
86,0.86,-0.09882717024821415,-0.382229356030483,0.43297326226146376
87,0.87,-0.093989223244174,-0.3928865590876693,0.43714372429360804
88,0.88,-0.09111854463366525,-0.40713337386441895,0.43981542632232
89,0.89,-0.07022154660833528,-0.4243571338090682,0.4422914836988924
90,0.9,-0.06789046258320346,-0.43342789802944554,0.44619365254146987
91,0.91,-0.04267210779708689,-0.4401429007794494,0.45125731087522314
92,0.92,-0.03145410097509228,-0.43984525075420866,0.4528493091124052
93,0.93,-0.0205542351187532,-0.44371928903863833,0.4567755492408426
94,0.94,-0.018328905672909547,-0.43650771821530826,0.46030720736039116
95,0.95,-0.016126555826214747,-0.4354711507488473,0.4618857744380951
96,0.96,-0.0177018211693382,-0.4238478791222519,0.46790192655634033
97,0.97,-0.03959354114576136,-0.41781525162318023,0.47041031336721856
98,0.98,-0.05547525044682278,-0.38992769473799305,0.47566595876828105
99,0.99,-0.07226874845281529,-0.3720748874716431,0.4811633438426387
100,1.0,-0.08963293586483448,-0.3137470613760694,0.4852602182709694
101,1.01,-0.09867389263194203,-0.2346810588620564,0.4894294176354932
102,1.02,-0.10512905880270006,-0.10981830730406472,0.49447734312880054
103,1.03,-0.11041400749899426,-0.030506504863426064,0.49946406395981396
104,1.04,-0.10322934278163516,0.10045021036051736,0.5055717542365462
105,1.05,-0.10431688072977917,0.25467847391617787,0.5108665951952599
106,1.06,-0.10959100832019825,0.40416324027162376,0.5152188218825546
107,1.07,-0.11257533452320702,0.4910771854786201,0.5211969442437419
108,1.08,-0.10939020192703165,0.5914121368528905,0.5256888018824765
109,1.09,-0.11082598449844341,0.697873741105815,0.5318952504570336
110,1.1,-0.10146906383468347,0.7686389572799428,0.5370924593059149
111,1.11,-0.10697691391380498,0.8137369335983051,0.5414357507586467
112,1.12,-0.10280028435089804,0.8437570528368608,0.5467293756472764
113,1.13,-0.09832669572342456,0.8759619775493334,0.5512554735286375
114,1.14,-0.09713715804657123,0.8708282887053338,0.5534357362190439
115,1.15,-0.0973179921201273,0.8739934587169879,0.5567080819332834
116,1.16,-0.09438034177335995,0.8539986795263103,0.5599399967542601
117,1.17,-0.09844907932490711,0.8408270261470786,0.5619639247284182
118,1.18,-0.09227410649075744,0.8153312585506799,0.5643138299092503
119,1.19,-0.09381568670198231,0.8107372589365026,0.5671180681938398
120,1.2,-0.09309417121646743,0.7925046861273158,0.5680158466523546
121,1.21,-0.09412922502613161,0.7786297282610746,0.5705808548027054
122,1.22,-0.09833573662281603,0.7501200902460711,0.5735915465056113
123,1.23,-0.0907336512149316,0.7397265077848649,0.5758965981331303
124,1.24,-0.09498379317156548,0.7057942886557232,0.5789107399411443
125,1.25,-0.09914258784451387,0.6715437092932136,0.5824902668546686
126,1.26,-0.0991772778028277,0.6240859421881356,0.5859255240877193
127,1.27,-0.1060400795152211,0.6033962369349603,0.5892328870633783
128,1.28,-0.10035995161001511,0.5692018755448535,0.5940994359124214
129,1.29,-0.10296558812562798,0.5461405451986068,0.5979660545945282
130,1.3,-0.10233378541598165,0.5238345777102963,0.6001548132417651
131,1.31,-0.1095875590875627,0.5162131385224817,0.6059240635938892
132,1.32,-0.09938642508590774,0.5006258317682244,0.609466423721809
133,1.33,-0.10419632451046122,0.4888453803201213,0.6122041513740871
134,1.34,-0.10420712962562421,0.4708458840582333,0.6166512061299705
135,1.35,-0.10416726583866691,0.46455692736452625,0.619439667590603
136,1.36,-0.09838675833607517,0.4456900924004171,0.6229697566612984
137,1.37,-0.10544209964435022,0.42683202174361357,0.6254365198369477
138,1.38,-0.1030381120970534,0.39884128394307117,0.6277598054688548
139,1.39,-0.1042479740254748,0.38800325042589107,0.628616777702114
140,1.4,-0.09869511079572481,0.36354149132004204,0.629391649314373
141,1.41,-0.10049521318900903,0.3421391441753088,0.629809478931638
142,1.42,-0.10231733138556727,0.3052104585716427,0.6280437033422375
143,1.43,-0.08418169640397183,0.28586947595510886,0.6280427334003517
144,1.44,-0.0581374117327666,0.25213574854298537,0.6271597350987652
145,1.45,-0.0709220735028071,0.2200837887596165,0.6250022985638536
146,1.46,-0.0795256618524459,0.17748319216401107,0.6227531578300826
147,1.47,-0.08068562513931467,0.15319847202260015,0.6197513719427122
148,1.48,-0.06366459061065564,0.1095540729300502,0.6177943578668809
149,1.49,-0.08641158871395344,0.06919773228373115,0.6138965665848041
150,1.5,-0.09919320145675775,0.025991619917891107,0.6116719488703837
151,1.51,-0.12330581456901178,0.0014243728232527354,0.6079437724086408
152,1.52,-0.10753613066968584,-0.0321933305809108,0.6060387120031474
153,1.53,-0.1149664279361822,-0.06836589872421366,0.6014650888094482
154,1.54,-0.10470486580343588,-0.0986054247922833,0.599503547741581
155,1.55,-0.11741714382247813,-0.1135338245583113,0.5969260670463582
156,1.56,-0.09569134263077153,-0.1317237682579433,0.5939190943579183
157,1.57,-0.11261052205928973,-0.14952380617337735,0.5908228914423946
158,1.58,-0.08947988279349883,-0.16789265809165455,0.5869908310063997
159,1.59,-0.16638868872549475,-0.1780636979981256,0.5853998690479049
160,1.6,-0.26635977504846536,-0.18828042693789562,0.5812834339262417
161,1.61,-0.09339822948743627,-0.1970474573163507,0.5793130580363758
162,1.62,0.6053222066071197,-0.21013059080558308,0.5777739044947455
163,1.63,0.7196450199315757,-0.21975576638002658,0.5741654708693098
164,1.64,0.12877590842154124,-0.23243815986675403,0.5731409606996782
165,1.65,-0.250081716231472,-0.2493282392542041,0.5707773185171628
166,1.66,-0.29182947099343487,-0.2694863241393018,0.5706453470228554
167,1.67,-0.09573091942509263,-0.28271510743502776,0.5685233217451874
168,1.68,-0.08657369649983847,-0.3002097781050961,0.5676701549841965
169,1.69,-0.07914115102870285,-0.3215308404864402,0.5669812590050551
170,1.7,-0.09350475643322516,-0.3399441699383378,0.5665207787893456
171,1.71,-0.08028100530014476,-0.3513542843883518,0.5669332559142669
172,1.72,-0.08536895736330861,-0.3660823411054722,0.5654692211461623
173,1.73,-0.08448093079913029,-0.3847340220458052,0.5668612960462756
174,1.74,-0.08271559282871391,-0.3998908321746858,0.5660208369615037
175,1.75,-0.07232303738245958,-0.40934320703212007,0.5666750986515681
176,1.76,-0.08069244490839453,-0.41215978050453034,0.5659427614069197
177,1.77,-0.07157286768179419,-0.42034660985404493,0.5653875689491603
178,1.78,-0.07071802250299014,-0.42066515536256976,0.5649511863971229
179,1.79,-0.06514548215485587,-0.4214943804176845,0.5660685160286488
180,1.8,-0.06430482037112174,-0.41726876125875606,0.5653095938251665
181,1.81,-0.05581433823351407,-0.42282044591661844,0.5655985674920272
182,1.82,-0.048730179949890075,-0.4280475325095011,0.5664751180775733
183,1.83,-0.029867143402988322,-0.4329116269227914,0.5654230175528291
184,1.84,-0.02406107825292808,-0.436476454828222,0.5662359404415026
185,1.85,-0.00423454571879574,-0.4466784490373969,0.5663394686710888
186,1.86,0.0029701787077615286,-0.4519206862003151,0.5672856844503771
187,1.87,0.02292469766340144,-0.45720558953714113,0.5677730143952345
188,1.88,0.02360456645589533,-0.45377988281167136,0.5680445079190581
189,1.89,0.023283660905347704,-0.455656093601254,0.5682924417918712
190,1.9,0.01124461342010237,-0.4410083433415481,0.5701389179985851
191,1.91,-0.0022691292332685156,-0.43386330819954894,0.5708446279870745
192,1.92,-0.022863944347248866,-0.40883186452619596,0.5716638022318682
193,1.93,-0.0454299720261765,-0.36791051850931483,0.5730167360041789
194,1.94,-0.05855656484672809,-0.29173567000778644,0.5733847423712992
195,1.95,-0.06958765159421867,-0.24436204774597844,0.5740027849588552
196,1.96,-0.07599254765962708,-0.13640754467240307,0.5738447351751066
197,1.97,-0.07171604686902013,-0.009629570329389398,0.5750530422069969
198,1.98,-0.0821419919365773,0.15049836355665952,0.5765624108653387
199,1.99,-0.08169487904675703,0.24957561447877788,0.5757314392477203
200,2.0,-0.0764445302003689,0.38660228266762614,0.5773663305027694
201,2.01,-0.08045904720867075,0.5363624082338383,0.5778095308335829
202,2.02,-0.07944012396137777,0.6537144955743521,0.5786577363412742
203,2.03,-0.07846503581180228,0.7213376084508929,0.5793233604199601
204,2.04,-0.07809291390632046,0.7772401079389882,0.578817581488494
205,2.05,-0.07099928797553638,0.8315510695247457,0.5795809650118348
206,2.06,-0.07124818696960139,0.8467607633575339,0.5799805672934347
207,2.07,-0.06958156605935521,0.863270544471363,0.5791569334816884
208,2.08,-0.06795612248788943,0.8573313703278606,0.579523713076756
209,2.09,-0.06807630370911248,0.8614170024761955,0.5795650191518623
210,2.1,-0.06770196454121687,0.841809991245478,0.5778935078476776
211,2.11,-0.06403471013377879,0.8382391382633688,0.5775622297281179
212,2.12,-0.07190831822038983,0.8136468363203021,0.5765126572763549
213,2.13,-0.06462300238917719,0.7992660338674257,0.5744326869254235
214,2.14,-0.06880521694986236,0.7706720858397854,0.5723329640797219
215,2.15,-0.07171958013397202,0.7611627709527409,0.5694518781842759
216,2.16,-0.07327315787117221,0.7419108643615138,0.5667868736134792
217,2.17,-0.07337998518050118,0.7282372395073039,0.5617516957010297
218,2.18,-0.07506805643907472,0.7063461948828671,0.559431350501309
219,2.19,-0.08075740669678051,0.6988215604239069,0.5543462938597132
220,2.2,-0.08006426002386981,0.673782837159671,0.5493159276978868
221,2.21,-0.07971167299086349,0.6542818897968954,0.5439230398599653
222,2.22,-0.08206822533919986,0.6265388136111268,0.5387199008110912
223,2.23,-0.08022858728606724,0.6154340605383815,0.5328236278232895
224,2.24,-0.08686210650271393,0.5947880529600594,0.5258512873795904
225,2.25,-0.0857650852295566,0.578699141850067,0.5191970341102651
226,2.26,-0.08269407497904635,0.5640215017867353,0.5112920765835058
227,2.27,-0.08903680723674018,0.5623949879926112,0.5039376193878933
228,2.28,-0.08496540772246747,0.5509111582234172,0.4942342787417991
229,2.29,-0.08337629013085203,0.5483328513509627,0.4850921601799526
230,2.3,-0.0887834823669111,0.5369238538633796,0.4760262144050382
231,2.31,-0.0896165060839676,0.5342280673083909,0.4661922908693834
232,2.32,-0.08510396071540613,0.5140164525624312,0.4548205838125809
233,2.33,-0.08846235065411752,0.4943572195423733,0.4446469944311574
234,2.34,-0.09155109330594342,0.4566040298058923,0.4326020594188081
235,2.35,-0.09184016162541044,0.43745219225980697,0.421047448472674
236,2.36,-0.09271979530866782,0.39765078938547754,0.40885554960745574
237,2.37,-0.08895315223823497,0.3550572010498903,0.3972779894863873
238,2.38,-0.0932668462295879,0.30534675133211214,0.38543963608375376
239,2.39,-0.0853905094726916,0.2814977464579915,0.3730954167042502
240,2.4,-0.08890441777301658,0.24289809963937062,0.3607845132821845
241,2.41,-0.08910921029413392,0.2063845351078042,0.34764147338521784
242,2.42,-0.09086155992392755,0.1671844072049218,0.33504053081355567
243,2.43,-0.07718932226761228,0.1479086508103534,0.32310095659521276
244,2.44,-0.06335450137651094,0.12081184528869901,0.3110693240702045
245,2.45,-0.0575801009800922,0.09302360920661847,0.29912162096319894
246,2.46,-0.06861547197580986,0.06139789908222182,0.28764539631210834
247,2.47,-0.06309014257574182,0.04434182134813982,0.2763960119816675
248,2.48,-0.05916942266111206,0.011124886194085989,0.2636340502721097
249,2.49,-0.07430135759603272,-0.019859455859839857,0.2523512236977706
250,2.5,-0.09745979787599486,-0.054396252334831696,0.2409021497614808
251,2.51,-0.10523388368879363,-0.07285085297710021,0.22904613303252516
252,2.52,-0.10205341718622608,-0.0965023193375717,0.21695439682432202
253,2.53,-0.09843213917701964,-0.11757720589162622,0.20613193708267938
254,2.54,-0.1037073323264268,-0.1388716517284143,0.1951512773777281
255,2.55,-0.09774365268017944,-0.15109633470006234,0.18477710912081147
256,2.56,-0.10334963842595224,-0.16665869215985893,0.17337010826959842
257,2.57,-0.0965281412540784,-0.18163783110901285,0.16272326801283035
258,2.58,-0.09095511505654626,-0.19681195727302406,0.15248618492699628
259,2.59,-0.10884009021117128,-0.20566573539113253,0.14318097663296836
260,2.6,-0.22807632967434155,-0.2189529469420636,0.13269997837871972
261,2.61,-0.24186486153168674,-0.22854552162090608,0.12326533979788742
262,2.62,0.26656748950893216,-0.23754326447901716,0.11345385746313692
263,2.63,0.8302371421095185,-0.24267325884254215,0.1036517743881172
264,2.64,0.3758849761184614,-0.2477789067975501,0.0936607148531643
265,2.65,-0.11924939097044411,-0.25557366802936243,0.08577451245818
266,2.66,-0.32572583904883434,-0.26709533715241757,0.07437648551715498
267,2.67,-0.20474795809824958,-0.2745867367581261,0.06592145439232121
268,2.68,-0.08780210316616884,-0.2910811115670452,0.056548439691428504
269,2.69,-0.08993285733506193,-0.3056583997083421,0.04669196235565154
270,2.7,-0.0860555377410238,-0.3210180009731794,0.037013573291687585
271,2.71,-0.09479124523813534,-0.329561390558898,0.027720681795032953
272,2.72,-0.08460289906803617,-0.3367484206265658,0.017647898298089652
273,2.73,-0.092283238096628,-0.34347655108286945,0.00782189987688964
274,2.74,-0.08900089109367569,-0.3490951394766381,-0.0032933893893823543
275,2.75,-0.0883563566813965,-0.3531078447442937,-0.013195867791487938
276,2.76,-0.08572295732208485,-0.3611972422786373,-0.025511336026221108
277,2.77,-0.08766821674360337,-0.37176341112521477,-0.036545768131463735
278,2.78,-0.08152671751086386,-0.3879811979833702,-0.046214636707237224
279,2.79,-0.08573311923469468,-0.399784589191717,-0.057416427830076514
280,2.8,-0.07657587548025399,-0.4142959094414097,-0.06827997052982056
281,2.81,-0.08004534617894615,-0.42872021865906645,-0.08151161202308323
282,2.82,-0.06360775044001049,-0.43509027586084287,-0.09138285076269405
283,2.83,-0.055932112485428044,-0.4396749484814077,-0.10458910805595
284,2.84,-0.046293416584351044,-0.4435864996659921,-0.11676564168347096
285,2.85,-0.03649283478408663,-0.4510509660566109,-0.12997208465935162
286,2.86,-0.017953511606829314,-0.45351976060499266,-0.14218093179659025
287,2.87,-0.008232424658100803,-0.4567804791923476,-0.15441733365871924
288,2.88,-0.0033436540990413187,-0.45746921243062477,-0.16910609458010054
289,2.89,-0.0014994312100286092,-0.46522142982420206,-0.18083619621050412
290,2.9,-0.009108207741601855,-0.4652252731973188,-0.19492374649981262
291,2.91,-0.0155947077266058,-0.46657715258657423,-0.20676748227274844
292,2.92,-0.0330991846255472,-0.4550050887630617,-0.2203949341432855
293,2.93,-0.053807988056778916,-0.4350542875797169,-0.23176775604571712
294,2.94,-0.07467497146466578,-0.3842701195444462,-0.24461177829827194
295,2.95,-0.08437568932269111,-0.35067087902435806,-0.25548295208375515
296,2.96,-0.08772824303506728,-0.2670373003538825,-0.26659318559792033
297,2.97,-0.0951495055558591,-0.16101306792147682,-0.2766249912552331
298,2.98,-0.09576484396492814,-0.023844575175347174,-0.28467358850848246
299,2.99,-0.09837345165470077,0.06005737867003491,-0.29415778539558834
300,3.0,-0.09986579533182181,0.18042514404589088,-0.3025654380682962
301,3.01,-0.10098476943185827,0.3123662201626942,-0.30981674291758493
302,3.02,-0.09861672607334979,0.42395085622457324,-0.3171491082264676
303,3.03,-0.10240430862080309,0.4903866799942519,-0.3233119571666605
304,3.04,-0.1017636848356674,0.5493336858236185,-0.33070347546002626
305,3.05,-0.09871780608743891,0.6158627023693248,-0.3374475557073345
306,3.06,-0.10234591952626877,0.6450492754812603,-0.34400636416247354
307,3.07,-0.09991586748944119,0.6681962106561937,-0.34911973599024293
308,3.08,-0.09472450059404454,0.6725513007793958,-0.35538627446591237
309,3.09,-0.09761136815061165,0.6824527702999494,-0.36244591223559675
310,3.1,-0.09781060544383116,0.6567814328338724,-0.36696305749692054
311,3.11,-0.09567576263973956,0.6471420823974816,-0.37348901045707256
312,3.12,-0.08865752731032782,0.6151978280698663,-0.3791565437190226
313,3.13,-0.09279659166312493,0.5869250787546948,-0.38598163102193456
314,3.14,-0.09030168758088444,0.5449723866799614,-0.39311090169997165
315,3.15,-0.09706968657834274,0.5282613170416778,-0.3990416785800366
316,3.16,-0.09868853281399893,0.48934729401706484,-0.4063259373352327
317,3.17,-0.1010178020490974,0.4516938501180426,-0.41308500319046176
318,3.18,-0.10355786235349931,0.3995829654844439,-0.4199663587216077
319,3.19,-0.10400746078773765,0.37424431596399343,-0.4279153040415931
320,3.2,-0.10137725035140126,0.32640033203067387,-0.4355685739679895
321,3.21,-0.10537312325186865,0.28206192995205454,-0.44209207445557913
322,3.22,-0.10988435925744312,0.2347610974126312,-0.45037858780579076
323,3.23,-0.10690129186316627,0.2134785721254427,-0.4584174865578098
324,3.24,-0.11463027163289304,0.18599683413437387,-0.465584691055377
325,3.25,-0.10606512417691093,0.16344929594401536,-0.47177100220887985
326,3.26,-0.10759888118844467,0.13762098484787968,-0.4798337215144345
327,3.27,-0.10841846917888881,0.1252457381421309,-0.4860990435519847
328,3.28,-0.10946734246535869,0.10865674670879705,-0.4945317328468202
329,3.29,-0.11517419878514258,0.08783531574782567,-0.5019539738363068
330,3.3,-0.10902124263425422,0.06331443380807603,-0.5109499507934778
331,3.31,-0.10726149470783972,0.053504314474602646,-0.5189882129651306
332,3.32,-0.11400629136561573,0.03558722238905,-0.5262271885512498
333,3.33,-0.11189120791459137,0.018661479651711155,-0.5352827470688609
334,3.34,-0.11253345382834536,-0.009213716245767249,-0.5432039008422336
335,3.35,-0.10214114648297355,-0.024031301541303406,-0.5517644858688755
336,3.36,-0.11322422905840807,-0.058479052470038595,-0.5597195255999798
337,3.37,-0.10996276510033534,-0.09722036892634897,-0.5660797909883191
338,3.38,-0.11518978028133575,-0.14979509955453535,-0.5738238430384874
339,3.39,-0.11143067781564286,-0.1786440939220867,-0.578904115432107
340,3.4,-0.10764797172173111,-0.22451618064023446,-0.5859749992034742
341,3.41,-0.11350418201080816,-0.2679487086036986,-0.5917425845507546
342,3.42,-0.11389823498227887,-0.31407955954749817,-0.5987277445897004
343,3.43,-0.1139912242164781,-0.34053447685309274,-0.6031221176591901
344,3.44,-0.11388514284988176,-0.3800207244536349,-0.6073887484627424
345,3.45,-0.09905462872938894,-0.42107660085188914,-0.6147563601487881
346,3.46,-0.11455671844716245,-0.4633479644142765,-0.6170001343824771
347,3.47,-0.10750004844405354,-0.4886757401270633,-0.6223378876115617
348,3.48,-0.08933207521534205,-0.5183751781004308,-0.6256327256112373
349,3.49,-0.07485603881120478,-0.5506576449410392,-0.6292893531239991
350,3.5,-0.08954129567980615,-0.5715637798866663,-0.6325318564754517
351,3.51,-0.08952661158584738,-0.5816854923465703,-0.6362773627662056
352,3.52,-0.08104767703895867,-0.5915462182868748,-0.638145822539137
353,3.53,-0.07868912446878094,-0.6032280372125397,-0.6407675485736155
354,3.54,-0.09600689272063423,-0.6172385591499715,-0.6426314459935515
355,3.55,-0.10775700882437889,-0.6267432714978585,-0.6441686128643113
356,3.56,-0.11733862940329132,-0.6427073858155822,-0.6447253889545709
357,3.57,-0.11539869673562579,-0.6572508786182962,-0.6471999493540121
358,3.58,-0.11263041363617472,-0.6762136027320822,-0.6493910553956269
359,3.59,-0.10637208422686471,-0.6897890572710903,-0.6485227117951862
360,3.6,-0.11743484065601628,-0.7071907020698143,-0.6486750327883899
361,3.61,-0.10698603297545196,-0.7283636809514918,-0.6492008016966796
362,3.62,-0.11851345219351134,-0.7487154538391665,-0.6491203043224949
363,3.63,-0.09130986549810986,-0.7623224965678541,-0.6491597172242761
364,3.64,-0.16108307043697004,-0.779359015010339,-0.6503875052861601
365,3.65,-0.28263415415147647,-0.8034996984807049,-0.6495802474889444
366,3.66,-0.1508045343144468,-0.8246501255231814,-0.6498527801930769
367,3.67,0.5491832574459756,-0.8381388393684998,-0.6498587440040772
368,3.68,0.741664677858711,-0.8518714734713665,-0.6492217882650801
369,3.69,0.09143818831142977,-0.8740264276319974,-0.6487398931859475
370,3.7,-0.20358411196340484,-0.88783159984269,-0.6477869667021724
371,3.71,-0.34176721446276864,-0.8951281266676053,-0.6464644508720679
372,3.72,-0.1616676388975413,-0.898820222520364,-0.6451273157583634
373,3.73,-0.10379904883185795,-0.9036619947576479,-0.6434377526021114
374,3.74,-0.08468815191565283,-0.9051656044499078,-0.6408853851228746
375,3.75,-0.09681470550031945,-0.9082596523521409,-0.6387480716955387
376,3.76,-0.08930621493584547,-0.9064393267237733,-0.6370735906541729
377,3.77,-0.09909558119444828,-0.9103937667475699,-0.63345595996929
378,3.78,-0.08323921430725074,-0.9120937386899218,-0.6299711404826394
379,3.79,-0.09393650163192982,-0.9153082405702667,-0.6279794216312601
380,3.8,-0.09109341734965898,-0.9164448576657058,-0.624610621665488
381,3.81,-0.09269477350488456,-0.9185925542581898,-0.6217071116922069
382,3.82,-0.08169682933019727,-0.9166900601415839,-0.6182910244450355
383,3.83,-0.0813444810732825,-0.9186288051342436,-0.6154148326637732
384,3.84,-0.0773980346524782,-0.9165496806530383,-0.6111857785705974
385,3.85,-0.0804732789377467,-0.9211920854451064,-0.6072737535182122
386,3.86,-0.06437157992089634,-0.9203183666296268,-0.6019001209255668
387,3.87,-0.06259017315278884,-0.921753403685254,-0.5961356943720587
388,3.88,-0.046726182717401976,-0.9137592198960829,-0.5916735158114081
389,3.89,-0.04458223015417225,-0.9038416250678645,-0.5864961290411109
390,3.9,-0.023390249023529725,-0.8832866445390123,-0.5810193058872064
391,3.91,-0.013503694763308089,-0.8753196407758306,-0.5761196882478604
392,3.92,-0.0024121672223718334,-0.8566899140146165,-0.5710392735236881
393,3.93,0.006126479268380809,-0.8493644961356781,-0.5653580871173008
394,3.94,0.017197588886311708,-0.8375082355853646,-0.559211454015653
395,3.95,-0.010383766950224688,-0.8358868843856587,-0.5534971058928986
396,3.96,-0.012386305077607455,-0.8297019618296613,-0.546019953998012
397,3.97,-0.03581634499963852,-0.8210807999889201,-0.5382355050670669
398,3.98,-0.04465018477773314,-0.779698730209062,-0.5294291693475324
399,3.99,-0.07149478577934085,-0.7522602836342492,-0.5195938496118109
400,4.0,-0.08318395596415248,-0.6684271155569909,-0.5097262341826059
401,4.01,-0.08835354776942847,-0.569008364117446,-0.4997607119322898
402,4.02,-0.09537138064288919,-0.42058711274748267,-0.48836779781528167
403,4.03,-0.09176533717561802,-0.32711927134106106,-0.4772932818934033
404,4.04,-0.0889575689586744,-0.18112458851119848,-0.4643206296080382
405,4.05,-0.09839247206349777,-0.017848861558572637,-0.4528828276754261
406,4.06,-0.08499042228381465,0.13400040509711522,-0.4400136880183314
407,4.07,-0.08886513377380167,0.22283586953682152,-0.4284401698511971
408,4.08,-0.08923879511269334,0.3161907786120305,-0.4149126759963644
409,4.09,-0.09588717429579523,0.41392056000863303,-0.4035069760373737
410,4.1,-0.08878287077663914,0.4651541097953603,-0.38990884147087235
411,4.11,-0.09071912520461317,0.49717311223273086,-0.37725798292312324
412,4.12,-0.08803770574594533,0.5127319024388804,-0.3647161887704315
413,4.13,-0.08527165912118298,0.5280182197938743,-0.3521278209761742
414,4.14,-0.08668041385561906,0.5148725913850187,-0.34039953549607366
415,4.15,-0.08342392629413707,0.5147102599652988,-0.3278366603946354
416,4.16,-0.07987706681182336,0.4956767117152133,-0.3138638440521922
417,4.17,-0.08265255123035657,0.4818695955326242,-0.30080049970165545
418,4.18,-0.08229245008587573,0.45518890995890743,-0.2889479053821317
419,4.19,-0.08848448590927491,0.4476927564591216,-0.27479474356421657
420,4.2,-0.08179469889893295,0.4277648165837663,-0.2629517544684495
421,4.21,-0.08754728534034772,0.4171041479654584,-0.25021010127181675
422,4.22,-0.08592205662431045,0.39446930425751664,-0.23749317847371987
423,4.23,-0.09389501258629254,0.3841952370194661,-0.22447050022366596
424,4.24,-0.0971984310730651,0.36062066643222246,-0.21315013087128462
425,4.25,-0.09158276690595758,0.3349742878241669,-0.20132355355179765
426,4.26,-0.09132635635263717,0.3039166149874203,-0.19002117426291756
427,4.27,-0.09336396459639287,0.2905150205689479,-0.17848283698262266
428,4.28,-0.09065293901763931,0.26786794645496054,-0.16904851978312843
429,4.29,-0.10105913848461583,0.25520752410013403,-0.15929943618457063
430,4.3,-0.09909253482655149,0.2463826948805429,-0.1493738881301356
431,4.31,-0.10254421404441695,0.2445514070932071,-0.13954843573573292
432,4.32,-0.09399946460060671,0.23756529330840248,-0.130460275291038
433,4.33,-0.1026952410301911,0.23828155275343993,-0.12188278513168267
434,4.34,-0.09847617386832148,0.23519573078851666,-0.11346139163714535
435,4.35,-0.10673082763160857,0.2339248639425195,-0.10545742284123853
436,4.36,-0.09886883173493548,0.22437354466050538,-0.09780519551301291
437,4.37,-0.09939783752859943,0.21705781733304208,-0.08898797588622537
438,4.38,-0.09843153871470203,0.2067608079973405,-0.08225587392248598
439,4.39,-0.10120272227968004,0.2022324044118213,-0.07316925893556904
440,4.4,-0.10229088399429244,0.19061517235084327,-0.06582231117534479
441,4.41,-0.10348261228566916,0.17067876581888144,-0.0581769713068275
442,4.42,-0.10137679075636662,0.14316262907062566,-0.050570147361978006
443,4.43,-0.10254326132022597,0.12650670563437075,-0.04230372821137066
444,4.44,-0.09643015630697195,0.09483923735125237,-0.0357612251250243
445,4.45,-0.10732867407579293,0.058790626903934544,-0.02800739839597556
446,4.46,-0.09880865325098058,0.024371383729240723,-0.020006018871600664
447,4.47,-0.09940927210157881,-0.015581512246057602,-0.01316702608884742
448,4.48,-0.09383326630032758,-0.03900210491609876,-0.0059385608244799295
449,4.49,-0.09724912173502544,-0.06910363171939539,0.002002443026941989
450,4.5,-0.09701397000957378,-0.10682440142468956,0.010434364551080422
451,4.51,-0.0980155169738995,-0.14018665072895142,0.01743644028120185
452,4.52,-0.08636216761505648,-0.16434916318144713,0.026094029984218226
453,4.53,-0.10155762422696855,-0.1873358768236728,0.03377903626342795
454,4.54,-0.0842155955985088,-0.2214412861362982,0.04426546517803316
455,4.55,-0.07019233982801379,-0.24546361389864038,0.05216378338203582
456,4.56,-0.06303725721329557,-0.264797157281992,0.06352337059266301
457,4.57,-0.074587514116431,-0.2770862140518102,0.07166457182487708
458,4.58,-0.07195753208269628,-0.3010973392851466,0.08092805030829686
459,4.59,-0.0610052898483194,-0.3075639155379256,0.08921582044101636
460,4.6,-0.07387723146666804,-0.31711033025984653,0.0979493869393138
461,4.61,-0.09393893660684331,-0.32228191636155545,0.10529802769291294
462,4.62,-0.10172457209495799,-0.325311866588721,0.11293122862682013
463,4.63,-0.1085538147285668,-0.3258397753054157,0.11899937766849002
464,4.64,-0.10489645964406329,-0.33301482739749844,0.12654792977299748
465,4.65,-0.10274668959553959,-0.33471575687610133,0.13224350432138354
466,4.66,-0.10365062968529297,-0.3436456112799721,0.13818698883588917
467,4.67,-0.10031850310768292,-0.3455897670972467,0.14454615145312397
468,4.68,-0.10476429136069734,-0.34994980441521845,0.15067454782530118
469,4.69,-0.0943412125890637,-0.3451068509336597,0.15666185620684456
470,4.7,-0.10837774262934999,-0.34430236736597175,0.16228997392992375
471,4.71,-0.22459337474514204,-0.33939087463423284,0.16907934133955307
472,4.72,-0.23415040436211504,-0.33888328390050465,0.17480233826205602
473,4.73,0.25169223827819515,-0.3423150343315381,0.18059261100828308
474,4.74,0.8425361392711029,-0.35120360732440814,0.18890157500920166
475,4.75,0.41464699478594147,-0.3604841605140877,0.19443517457499107
476,4.76,-0.12072840971398485,-0.3707176174042895,0.19833981235246756
477,4.77,-0.3359008615403209,-0.3777615769189643,0.2029377567430864
478,4.78,-0.1885235952550165,-0.39049642958871866,0.2063835739972741
479,4.79,-0.07812338502411997,-0.39531864275670703,0.2103449254546083
480,4.8,-0.0882095858561748,-0.40180558112591275,0.2149728524305192
481,4.81,-0.08143103217471426,-0.4036796054263194,0.21893457085798199
482,4.82,-0.07966628286908352,-0.41556857907525413,0.2218513463220325
483,4.83,-0.0737670153688195,-0.4260110777911032,0.224376446297462
484,4.84,-0.0812149660547642,-0.436416213015962,0.227742779986979
485,4.85,-0.0765644384736336,-0.4384470281719265,0.23208938149017583
486,4.86,-0.0750115390260346,-0.44518451783285706,0.23436823949212476
487,4.87,-0.06705482509927882,-0.44529966800038556,0.2376451585249134
488,4.88,-0.06696668702067274,-0.4500732234923584,0.23970323583713474
489,4.89,-0.06622188196075622,-0.4519833998855627,0.2421243254495565
490,4.9,-0.06551952890797634,-0.4623397886537735,0.24388154793719058
491,4.91,-0.0673546955127177,-0.46907892776648874,0.24539825832469303
492,4.92,-0.048266400828224185,-0.47792443501831916,0.2458935880180544
493,4.93,-0.04114418611641253,-0.47956006612253604,0.24851025802833515
494,4.94,-0.03671934130882496,-0.4870119452938436,0.2485724588602632
495,4.95,-0.02052595456620677,-0.4851941363155443,0.25060594416569815
496,4.96,-0.012003244558899598,-0.4880454091468202,0.2521022175633056
497,4.97,0.011131220803958472,-0.4805265579419438,0.25350486642400893
498,4.98,0.02382589647140004,-0.47683213804371954,0.256650305041651
499,4.99,0.03336475467481167,-0.47072086451135814,0.2584968943847806
500,5.0,0.04096979070958103,-0.4679868942619121,0.2616442497696239
501,5.01,0.030312575481665972,-0.4578816298675141,0.2656336168078507
502,5.02,0.02785769224656901,-0.4423315643329864,0.26954388610957813
503,5.03,0.011180230245144886,-0.4204786371948981,0.2746893678597915
504,5.04,-0.019040817022323856,-0.3858283450743024,0.2796761111756307
505,5.05,-0.03540293532795177,-0.31676031076246525,0.28496094365885893
506,5.06,-0.05799201858796372,-0.24213909508814038,0.29108826851020786
507,5.07,-0.061182480989297114,-0.11800628815202756,0.29757250548385805
508,5.08,-0.062049257120529604,-0.025494013823933123,0.3048353004978109
509,5.09,-0.06709109975950077,0.08643601815185578,0.3106990718652781
510,5.1,-0.07063085951732012,0.2647506021642654,0.31763300281732243
511,5.11,-0.07269021625233733,0.35790599722310634,0.32487900127553926
512,5.12,-0.07539118505050357,0.4890798243240709,0.33140679175746157
513,5.13,-0.06991059238693993,0.6285138208147073,0.33816926148952664
514,5.14,-0.06026821420907795,0.7266716553995425,0.34548914121719104
515,5.15,-0.06717292036852351,0.8103388149377008,0.35160123723184294
516,5.16,-0.06325214198208218,0.8484662211784628,0.3592668861752191
517,5.17,-0.06765440746900095,0.8727601214246284,0.36394089854259315
518,5.18,-0.05207971407288661,0.8920368614398935,0.3704248347636886
519,5.19,-0.059495371569476874,0.8965660732039246,0.3766506238306248
520,5.2,-0.0564219428747774,0.8894306209294334,0.3808135792301163
521,5.21,-0.06020854280095884,0.885226848166459,0.3866796375806627
522,5.22,-0.04886531952535867,0.8748337070670323,0.3909230720307634
523,5.23,-0.057148634026143,0.862216023685226,0.39424664157069333
524,5.24,-0.05295213401737666,0.8496504477182706,0.3993162782363126
525,5.25,-0.04914498353988745,0.836775583000532,0.4024276404628243
526,5.26,-0.05056611641929325,0.8092497738568415,0.40793611976798516
527,5.27,-0.06000720456401297,0.7977422576431451,0.41144830059390597
528,5.28,-0.05986088551236476,0.7712640694841534,0.4159050914111353
529,5.29,-0.060637486145966424,0.7430167675883776,0.4200899415303999
530,5.3,-0.05800533204623271,0.7069417893032388,0.42315240615219996
531,5.31,-0.06645128000071483,0.6892892218288709,0.42857137280417534
532,5.32,-0.06393716083696205,0.6555929273015121,0.4330617569568465
533,5.33,-0.06881667330989281,0.62742427664056,0.43481679503690385
534,5.34,-0.07023588981812715,0.5941636802616708,0.4388573457698229
535,5.35,-0.07368770641413616,0.5748023025798956,0.4406933788204079
536,5.36,-0.06649478299101781,0.5491747546583416,0.4442460805473123
537,5.37,-0.0681549584562506,0.5238000921272247,0.44543408851648625
538,5.38,-0.07506156500523893,0.5022974727451943,0.44701581108058774
539,5.39,-0.06903346734453031,0.47751098294116573,0.4473127843929703
540,5.4,-0.07195415635289362,0.46029580063461917,0.4470186928510563
541,5.41,-0.07237755739002358,0.45112221009481784,0.4449122026566628
542,5.42,-0.06943889585862865,0.4315022932160361,0.4440219901674096
543,5.43,-0.07113714951167487,0.42165684514226576,0.44324298073138696
544,5.44,-0.07448705519675798,0.4025658818465524,0.4400033630976324
545,5.45,-0.0761399479657046,0.3775053167873709,0.43843553240465666
546,5.46,-0.06556463088768213,0.34987638819738764,0.43531473167803925
547,5.47,-0.07555659113458216,0.3197142413573889,0.4328756739572373
548,5.48,-0.06968667618702051,0.29765812213792286,0.42938231176049213
549,5.49,-0.07215347109593606,0.27781067754871097,0.42797675150155595
550,5.5,-0.07670654255789817,0.2412228597488059,0.42609330169282744
551,5.51,-0.07014290274454173,0.2237483416335041,0.4244631208756823
552,5.52,-0.06594287185388874,0.19710283966581266,0.422663604215563
553,5.53,-0.07783751038162644,0.16283310698591794,0.42201681073969327
554,5.54,-0.06885354962062798,0.1273311860860249,0.42034265127641424
555,5.55,-0.07005544679251476,0.08637976863807267,0.41918817087395854
556,5.56,-0.0684561965530426,0.055639490005261596,0.4201871330933409
557,5.57,-0.0725155498761221,0.024878180557557666,0.41960469483594365
558,5.58,-0.06683969843148432,-0.024786081677115157,0.42033305266626486
559,5.59,-0.06399395547771287,-0.04530625167953475,0.4206220440302622
560,5.6,-0.07218402708369312,-0.07524787955150072,0.4214587372817279
561,5.61,-0.057716403938871,-0.10968709140093433,0.4204353729767688
562,5.62,-0.029852123449739944,-0.13785211021360794,0.42189825136053594
563,5.63,-0.04433110008045826,-0.15676693497949817,0.42167421040019243
564,5.64,-0.03260173344947186,-0.17116185277729742,0.42191088075002275
565,5.65,-0.048754987743051856,-0.179522311634529,0.42119004749895733
566,5.66,-0.030021066698886732,-0.19848984891373103,0.42047770692751824
567,5.67,-0.043703410346509215,-0.20416796931996548,0.419611749149834
568,5.68,-0.05780976517101899,-0.21372175290828602,0.41883026158139064
569,5.69,-0.08478958437539197,-0.21849515491560048,0.41743476927711953
570,5.7,-0.06754188556585475,-0.22551511462974944,0.41726247272336253
571,5.71,-0.07953268510489218,-0.230169420151558,0.416301097384306
572,5.72,-0.06794319171167676,-0.2358046382304296,0.4156844873432722
573,5.73,-0.08093539101043422,-0.24116185455018907,0.4143085497672345
574,5.74,-0.0649795570987494,-0.25169951901056764,0.41378698191335495
575,5.75,-0.0681984889890703,-0.26011341468056276,0.4127102070141373
576,5.76,-0.054179547755255464,-0.2710914601218202,0.41233569419808636
577,5.77,-0.09401769315493877,-0.2796382356533731,0.41063205348400456
578,5.78,-0.2153725657302742,-0.29807967707813027,0.4111208819061378
579,5.79,-0.15892914623557083,-0.3071512022924187,0.40926371163421205
580,5.8,0.44797056605324354,-0.31579505939732977,0.40999560870642393
581,5.81,0.8579828248097519,-0.31768595609184996,0.40936336293201037
582,5.82,0.33166665273711915,-0.32160546759216374,0.4106923408818759
583,5.83,-0.12848272682657583,-0.31396487747985147,0.41013025363285843
584,5.84,-0.2925293857485153,-0.3161370891838796,0.41139731294396775
585,5.85,-0.10005658987071206,-0.30958039611629906,0.4111106144684462
586,5.86,-0.037603519514022764,-0.3140275326670283,0.41099019033869616
587,5.87,-0.03398804952610178,-0.31392675702841255,0.4106193865983075
588,5.88,-0.04488670216942338,-0.3196552610628842,0.41043237771461144
589,5.89,-0.03337668680826648,-0.317639071768997,0.4084003531242202
590,5.9,-0.04250318726499156,-0.3287241997004085,0.40633653410129594
591,5.91,-0.030586929604651862,-0.3315015256436187,0.4045645450453793
592,5.92,-0.03683548381356571,-0.33679806958897607,0.4019006672017118
593,5.93,-0.030186577877538184,-0.3348745477143388,0.3979589585836312
594,5.94,-0.038194729893993654,-0.3460689664042637,0.39611963656238774
595,5.95,-0.029477892519612667,-0.3481808245220384,0.3905106607524913
596,5.96,-0.030998846422651532,-0.3627764685832789,0.38502585409549045
597,5.97,-0.02065511462518497,-0.3677657440027748,0.38147287264995494
598,5.98,-0.021971111539332896,-0.3827796252004299,0.3762298689771307
599,5.99,-0.012843264773326788,-0.3860243603441611,0.3721469969703857
600,6.0,-0.004913902251289919,-0.39427478387264264,0.36765385801207234
601,6.01,0.010448477276697649,-0.39667788213212507,0.3621891046306824
602,6.02,0.017377894901674504,-0.40476297828597796,0.35792648916951836
603,6.03,0.03658251129618732,-0.40188064217561137,0.35280731169605556
604,6.04,0.051101092474571466,-0.41274116619456475,0.3478396481396179
605,6.05,0.06503273963589513,-0.40557368045510456,0.34341474453027915
606,6.06,0.07033307458395995,-0.408576798967553,0.338254438565652
607,6.07,0.07872051645722132,-0.39778097382935274,0.33305241880349856
608,6.08,0.08198063669429947,-0.4002815864240263,0.32676707557258716
609,6.09,0.0661843452378708,-0.3859499446163059,0.32085711586594595
610,6.1,0.03536209284933551,-0.37723573488992945,0.3155474797148565
611,6.11,0.01754782628105362,-0.3246080792326001,0.3094836699142244
612,6.12,-0.005533691372663972,-0.29172581872173386,0.303864112380643
613,6.13,-0.016428583720524616,-0.2135652303756882,0.2992284318955931
614,6.14,-0.028212394698971733,-0.10875171001522994,0.2939270335851265
615,6.15,-0.02377819837888813,0.04283447695995123,0.28882668961174196
616,6.16,-0.03386846355044767,0.14493677437893374,0.2842547143708041
617,6.17,-0.02409873081110422,0.27156898290329995,0.2802427977909219
618,6.18,-0.034775277957080554,0.43541263307765904,0.27599520233959723
619,6.19,-0.03625140237610429,0.5789498031964263,0.27214825190739356
620,6.2,-0.030130645983334772,0.6712449547934662,0.26792630521709604
621,6.21,-0.026193921900265642,0.7464173201722043,0.26514220036055797
622,6.22,-0.023134065650537366,0.8395051769659277,0.26070468447784345
623,6.23,-0.02913320917672491,0.8895160710662492,0.2581485390031987
624,6.24,-0.02670289480916093,0.928868503316915,0.25301971807602175
625,6.25,-0.021106506647705987,0.9375929854531768,0.2493098083075683
626,6.26,-0.023292876917874655,0.9535095209949046,0.24378537238186146
627,6.27,-0.025276172266956037,0.9406850381129809,0.23889359381676364
628,6.28,-0.018536736860624414,0.9395725583151037,0.2333483258693306
629,6.29,-0.017381280185539638,0.9200135611589411,0.22696944652254336
630,6.3,-0.021827116931850136,0.8932073930408434,0.2207397732903376
631,6.31,-0.027310525568276452,0.868878408774643,0.2131004067189242
632,6.32,-0.02053121976830548,0.8446894889251785,0.20520419535885204
633,6.33,-0.02417983647593299,0.8080291199519409,0.1982210493401
634,6.34,-0.023124788599078593,0.7796768545942614,0.19030602920459097
635,6.35,-0.024955402490987617,0.7543135722057839,0.18297160927831563
636,6.36,-0.02565403311516661,0.7287094925313166,0.1754084921643033
637,6.37,-0.03138723350514334,0.6868161770581857,0.1680907364637395
638,6.38,-0.03177733185492135,0.6612093094680205,0.1586229797352501
639,6.39,-0.03133462846637266,0.6229614881100569,0.15134549271369174
640,6.4,-0.03752954515715512,0.6084355010937686,0.14178030577662942
641,6.41,-0.036268538940061844,0.5777185158229681,0.1336013117933139
642,6.42,-0.03448374836746521,0.5531479882423236,0.12478075557323334
643,6.43,-0.03881039500944302,0.5215338570863792,0.11635021213838949
644,6.44,-0.03686266224710686,0.5032176621322954,0.10733531230495032
645,6.45,-0.035292726981769905,0.4853937622705995,0.09969927043727031
646,6.46,-0.03644231550469206,0.46815346513338285,0.09088726171760086
647,6.47,-0.03622312918862668,0.4495541004738928,0.08357158073545494
648,6.48,-0.02529371680220115,0.4419096912338589,0.07521533360381683
649,6.49,-0.04153306096601295,0.4277067535586331,0.06702918338089366
650,6.5,-0.04125962369096499,0.4146511531881618,0.058535123388833675
651,6.51,-0.040044464736992434,0.38889251415911963,0.05022478801348296
652,6.52,-0.03696211683052588,0.3723304142253731,0.039984431055612835
653,6.53,-0.03759460379684056,0.3401792282996504,0.03215647962595499
654,6.54,-0.037502879575333686,0.30159502696218676,0.023431618307579033
655,6.55,-0.03735964403617754,0.25732401102702085,0.01482660130904001
656,6.56,-0.03841284702167919,0.2298587784800927,0.005437328863570589
657,6.57,-0.042759378563496,0.20157175808442454,-0.004826353865640454
658,6.58,-0.03549482046473931,0.16991883540822889,-0.01410357824918137
659,6.59,-0.03782199248142523,0.13999834126454289,-0.024250095162774855
660,6.6,-0.03709553396502514,0.11934515575123122,-0.03428634820910028
661,6.61,-0.03225010126780873,0.09431862596052326,-0.044796605821374895
662,6.62,-0.03715273030246935,0.05822645618258264,-0.054234009481357086
663,6.63,-0.037370427035276065,0.016862912041778665,-0.0664613486918361
664,6.64,-0.01664032336617922,-0.012378611456244668,-0.07597788371609193
665,6.65,-0.003778093267360808,-0.04800287032950454,-0.0884123738248177
666,6.66,-0.00960663806162006,-0.10085225739150334,-0.10032722669179867
667,6.67,-0.019563230876906756,-0.15166868370376732,-0.11186347809557753
668,6.68,-0.011148687213975933,-0.18539669692521032,-0.12453415996543617
669,6.69,-0.009934277532644288,-0.2154434932324174,-0.1364798163167685
670,6.7,-0.02125721955766339,-0.2580835529177917,-0.15157388609819816
671,6.71,-0.047042765765981986,-0.2916958971003714,-0.16415425144789267
672,6.72,-0.04782275721567236,-0.3165084758139443,-0.1779616619599649
673,6.73,-0.04972907658401008,-0.3273146831740899,-0.19235129530883693
674,6.74,-0.049404672495502365,-0.3454970155702922,-0.20613224907710204
675,6.75,-0.05161147206229066,-0.3606768853100698,-0.21940313026847733
676,6.76,-0.04799372149739329,-0.3785348115771639,-0.23455326969413273
677,6.77,-0.04477004708947612,-0.39132041474642465,-0.2490820703631993
678,6.78,-0.03911265034398715,-0.4154437746160025,-0.2631100507582035
679,6.79,-0.06323148608073331,-0.432307530098348,-0.2777459745377848
680,6.8,-0.2045804296760644,-0.44695314205527065,-0.2919781877608407
681,6.81,-0.17417972480587773,-0.45859280247029255,-0.30670968481954375
682,6.82,0.3937369117601645,-0.47361682376067277,-0.32123089221004
683,6.83,0.8769771021311638,-0.4800912645445564,-0.3368589188997211
684,6.84,0.31007616001947097,-0.4923322854742455,-0.35067344059567795
685,6.85,-0.09814924921828476,-0.49773654871519507,-0.36570377685430033
686,6.86,-0.26452864053236236,-0.5132801170013618,-0.3805569338096713
687,6.87,-0.16572775284979088,-0.5217916740138728,-0.3949514015771631
688,6.88,-0.037834325387028724,-0.5336109166163079,-0.41057546294087205
689,6.89,-0.03590446219574851,-0.5347069699254727,-0.42378549745822525
690,6.9,-0.03519108993734491,-0.5374699432263608,-0.4373578047238042
691,6.91,-0.03684775071102952,-0.5259671660714741,-0.45179458069373574
692,6.92,-0.031888250761462296,-0.5265823965852466,-0.4666407677341653
693,6.93,-0.04385860458234742,-0.5220157697197674,-0.48119612028612363
694,6.94,-0.03966625359662849,-0.5318857060536107,-0.49516454060088116
695,6.95,-0.03064730168013491,-0.5350325440736331,-0.5089746245236648
696,6.96,-0.03032852712210722,-0.551530820533606,-0.522449678804695
697,6.97,-0.02983350786878487,-0.5699819029158707,-0.5360394516501404
698,6.98,-0.025633443527740992,-0.5978111685061739,-0.5497142521810217
699,6.99,-0.024238231231994256,-0.6088143090889535,-0.5651605851227601
700,7.0,-0.021833593764709926,-0.6263432590154572,-0.5781565665995957
701,7.01,-0.015014108346028728,-0.6351782260257335,-0.592198926440385
702,7.02,-0.01178938319971808,-0.6415880469133773,-0.6058745435396568
703,7.03,-0.008352790763275093,-0.6410039819310392,-0.6191595882985186
704,7.04,0.007255444659174652,-0.6460026634064412,-0.632119700501884
705,7.05,0.013120897109737692,-0.6416962264811491,-0.6442353433040028
706,7.06,0.028169880497237773,-0.64380380846285,-0.6557195445022544
707,7.07,0.0349766405432159,-0.6483017337445666,-0.6686664218532428
708,7.08,0.04321797664357127,-0.6572746424493102,-0.6807028341755272
709,7.09,0.051171397874370105,-0.6657709363446247,-0.692992617035423
710,7.1,0.050764650484529314,-0.6833686227789072,-0.7045571582985898
711,7.11,0.04364084535301382,-0.6854557484537444,-0.716088574456057
712,7.12,0.029447729264812282,-0.6882933336392975,-0.7264806636296236
713,7.13,0.011137800343427694,-0.6709310746837149,-0.7363665157928141
714,7.14,-0.005779599755483825,-0.6429543382364061,-0.7449310309599184
715,7.15,-0.02711441667152498,-0.5775885468383364,-0.7530403742294076
716,7.16,-0.02387778805641184,-0.5241146019709985,-0.761065754321848
717,7.17,-0.03855713627044014,-0.44418844820823217,-0.7683093392947186
718,7.18,-0.03493397680447552,-0.30855498968652617,-0.774073339643246
719,7.19,-0.038585799382405875,-0.22942084234355148,-0.7807105034756486
720,7.2,-0.040871526861917334,-0.10263341140838689,-0.7869926780156087
721,7.21,-0.038854393865002265,0.042046131309731886,-0.7919714025463862
722,7.22,-0.031091204082537408,0.16281299069983562,-0.7972992777876899
723,7.23,-0.0452560164000701,0.28541710560604977,-0.803283374718812
724,7.24,-0.0340077293042814,0.35011852584726705,-0.8080886634591192
725,7.25,-0.03353911472939207,0.4051526884105586,-0.8144259329031265
726,7.26,-0.033537446099538716,0.4668939176254987,-0.819274928350205
727,7.27,-0.03256841560157324,0.4899821822154035,-0.8259667409151171
728,7.28,-0.02788921158300813,0.5124196356946874,-0.8311237672626284
729,7.29,-0.036322125639320746,0.5245899090917061,-0.8387016608499854
730,7.3,-0.026110237212900945,0.5156566236479978,-0.8418689179437124
731,7.31,-0.03123042709652492,0.5081034510421168,-0.8473706907475576
732,7.32,-0.03315338251105614,0.48488667134888913,-0.8531556462239106
733,7.33,-0.035225567520562245,0.4591018123121974,-0.8573544715624491
734,7.34,-0.026623664650882884,0.4213617601517208,-0.8628500139437
735,7.35,-0.0335303721294568,0.39747484149832335,-0.8683631587496871
736,7.36,-0.03020754431100486,0.36461911886568715,-0.8737317922710178
737,7.37,-0.03242202231748734,0.32699934014821547,-0.8786757371308838
738,7.38,-0.032069639967972144,0.29389531447109474,-0.885216800025726
739,7.39,-0.03317342731073787,0.24974620434638206,-0.8895194099840775
740,7.4,-0.0406003374801746,0.21804852174883652,-0.8940628191167899
741,7.41,-0.032225805621916986,0.18633322217487736,-0.898816813487348
742,7.42,-0.036126956634166076,0.1376845666980962,-0.902888030328605
743,7.43,-0.04476829752276671,0.11596449080958708,-0.9063365480846796
744,7.44,-0.03996732727016416,0.08077947423777594,-0.9130669923939382
745,7.45,-0.03659817049163367,0.04956411445495903,-0.9164918325054987
746,7.46,-0.03302764068191105,0.028767738229729653,-0.9211269654599066
747,7.47,-0.0351322804276885,0.013286646204332894,-0.9259160883368169
748,7.48,-0.039927679446437596,0.0018298489813199353,-0.9315844063985288
749,7.49,-0.03857629017850404,-0.003054094327293676,-0.9355341024349805
750,7.5,-0.03542113492521568,-0.014330728282588525,-0.940669134176935
751,7.51,-0.03866308218945403,-0.01814977523584572,-0.9468076472539149
752,7.52,-0.02998013505805343,-0.027095795443487218,-0.9508729074486658
753,7.53,-0.040279261043497806,-0.03522950377348906,-0.9560118610569008
754,7.54,-0.03395089365179307,-0.0439558739897532,-0.9603073108605459
755,7.55,-0.038080631456192456,-0.05498832033754783,-0.9638838724069255
756,7.56,-0.03899408358490312,-0.06759260449096026,-0.9693154147668738
757,7.57,-0.02720383289467395,-0.08073831158238039,-0.9738777598719552
758,7.58,-0.010546943585023269,-0.10939921981357709,-0.9789725037598717
759,7.59,-0.013117496512020007,-0.12479428911407113,-0.9821338338909185
760,7.6,-0.014875573951581452,-0.1609211073340603,-0.9862713149038145
761,7.61,-0.00822618848164661,-0.19832431778375656,-0.9889972944475781
762,7.62,-0.005069668302975653,-0.23579282898711718,-0.990323321020807
763,7.63,-0.021767828268731873,-0.27195866129759927,-0.993356927577078
764,7.64,-0.03594694549317452,-0.29549313213772993,-0.9955311057017039
765,7.65,-0.05704528339545857,-0.3131881923406806,-0.9981734940901003
766,7.66,-0.04374647290412051,-0.34626350928594835,-0.9991921118596551
767,7.67,-0.05005550400455017,-0.3626411134444797,-1.0
768,7.68,-0.03737391809373009,-0.3923128063112385,-0.9998923919872181
769,7.69,-0.052206369473504086,-0.4250508283969492,-0.99864842222646
770,7.7,-0.02905900471831732,-0.4534684020774833,-0.9992124833574141
771,7.71,-0.045121924163144526,-0.4854646086254264,-0.9968569838726407
772,7.72,-0.03602004982480605,-0.5089266613711515,-0.9947891235103079
773,7.73,-0.16298971348976785,-0.5352260475968826,-0.9922945719991279
774,7.74,-0.20485041936021392,-0.5683650966674132,-0.989025742526703
775,7.75,0.21690397740299533,-0.5887555057434206,-0.985538063954125
776,7.76,0.8740753260144307,-0.6062573409359807,-0.9819087154166646
777,7.77,0.4526530720608879,-0.6138656108349123,-0.9770838274192684
778,7.78,-0.04197644344601669,-0.6328188520838832,-0.9722189813875046
779,7.79,-0.22484685742671043,-0.6415957938947845,-0.9672379735781353
780,7.8,-0.22029784890262025,-0.650350541554424,-0.9626476341643457
781,7.81,-0.04076037068581552,-0.6520918518787013,-0.9552817853440989
782,7.82,-0.03136552073970628,-0.6604639759812103,-0.9503596809970517
783,7.83,-0.023988730975870003,-0.666394484779468,-0.9431182649066415
784,7.84,-0.02530787956858089,-0.6785688793564368,-0.9364507639688134
785,7.85,-0.020675070447499524,-0.6816592850837393,-0.9305163280750778
786,7.86,-0.02272667297618211,-0.6910394106298838,-0.9241180305415415
787,7.87,-0.016712645399793762,-0.6892424148347011,-0.9154017314375557
788,7.88,-0.016523727019100657,-0.6958019122909516,-0.9085788728135136
789,7.89,-0.012893927466591881,-0.6937184177892788,-0.8994390954078955
790,7.9,-0.015755304312310814,-0.700922868685021,-0.8926670866350933
791,7.91,-0.004504724952109501,-0.7007538969032737,-0.8852174372872195
792,7.92,-0.010366641060782401,-0.7101762612922936,-0.87800484212196
793,7.93,-0.0036671117689241832,-0.7114148905260428,-0.8715752040938005
794,7.94,-0.0009705075014967013,-0.7285559391099444,-0.8653070790254536
795,7.95,0.013698738180881723,-0.7303903540167137,-0.8596563370932493
796,7.96,0.005386651684190538,-0.7461977845407036,-0.8529788022422357
797,7.97,0.029106265455758822,-0.7500909897863302,-0.8469193880985447
798,7.98,0.03687381265359282,-0.7644444575429241,-0.8403521996627159
799,7.99,0.0516668474858117,-0.7643034202233139,-0.8326052008166255
800,8.0,0.05649580094476455,-0.7779909325870819,-0.8250878971983697
801,8.01,0.0684340785378506,-0.7803669814221899,-0.818081440828825
802,8.02,0.06981553737223546,-0.7980232508443353,-0.8099554570162598
803,8.03,0.06612416795227413,-0.7980948742002661,-0.8019126346481681
804,8.04,0.056536560710860995,-0.8068664024279867,-0.7917490641858297
805,8.05,0.04794418124078418,-0.7954678600140306,-0.7813081113642507
806,8.06,0.026991926306800595,-0.7889796235454372,-0.7700615229738753
807,8.07,0.009104880423298274,-0.7421973116496183,-0.7582865912929048
808,8.08,-0.011283767997154871,-0.7165149582322083,-0.7460407760583901
809,8.09,-0.007417190044445854,-0.6509335664995997,-0.7321336390916089
810,8.1,-0.017281585335046694,-0.5690835288666259,-0.7185536244505547
811,8.11,-0.02060030646210222,-0.43807102354168054,-0.7048615423141067
812,8.12,-0.024606202339755297,-0.3490871903021577,-0.6902391461977536
813,8.13,-0.02244659041425365,-0.23214179365419138,-0.675760213475835
814,8.14,-0.02382775833094862,-0.08119436028970657,-0.6613768845753081
815,8.15,-0.020119936008938594,0.06773635927168918,-0.6477009721191971
816,8.16,-0.018806218446747645,0.1684982179449275,-0.6346802273195479
817,8.17,-0.016807551572370547,0.2547587178258809,-0.6209731958305748
818,8.18,-0.014185352840072798,0.36576942605126217,-0.6090763990619291
819,8.19,-0.019966314378408852,0.42797340150836843,-0.5948116772999738
820,8.2,-0.01211408268655459,0.47029250008802886,-0.5824031882278932
821,8.21,-0.014478987898911324,0.4788040601091271,-0.568477906265905
822,8.22,-0.011081471528379223,0.4970321107817023,-0.555351621676557
823,8.23,-0.010132921737183607,0.4834897093774725,-0.5434608369549956
824,8.24,-0.012321381704569227,0.4766573726592774,-0.5304133360428048
825,8.25,-0.013646766182911645,0.45543624987764847,-0.5176770916731755
826,8.26,-0.01823344282616409,0.433766563956813,-0.5063070917813304
827,8.27,-0.012700290394904763,0.42064989427426824,-0.4956973332819668
828,8.28,-0.013918950951361598,0.4062438462865568,-0.48408846307436026
829,8.29,-0.012409652726599999,0.38562501905134755,-0.4729709160193235
830,8.3,-0.01467304063829391,0.36139061098382963,-0.46194283298400907
831,8.31,-0.017764568924195267,0.34353564376931556,-0.450987037954646
832,8.32,-0.02328710874972418,0.32471598402597174,-0.4396384539426423
833,8.33,-0.020333160105499952,0.29970057572273995,-0.43097160423327124
834,8.34,-0.020230098280944197,0.2754130690005642,-0.4198695804069014
835,8.35,-0.029015410574952084,0.25684037211053806,-0.41001543961041154
836,8.36,-0.020773786007086518,0.23574066336442176,-0.4000700233627198
837,8.37,-0.021311654533854706,0.2139351911801169,-0.38976218588732514
838,8.38,-0.023732695384226225,0.20101133480473513,-0.3806157071079036
839,8.39,-0.021983771413483757,0.18909414870308763,-0.37088396418352043
840,8.4,-0.023879950447176446,0.19077250928942574,-0.36037526798722413
841,8.41,-0.0209509457067358,0.19482421836662697,-0.3485314446409301
842,8.42,-0.024589963112631265,0.21179494006649358,-0.33918171930609153
843,8.43,-0.02520636362972429,0.22820138365897533,-0.3271172558725446
844,8.44,-0.021721161357124538,0.2432042599830978,-0.31595934553567784
845,8.45,-0.01633126369525568,0.24643551893595206,-0.30460759878023563
846,8.46,-0.02456840079279233,0.2578039326766141,-0.2924589567926681
847,8.47,-0.022132231354590696,0.25571799409104545,-0.28118944921794753
848,8.48,-0.02315834637735795,0.25602981717260337,-0.2702116043136494
849,8.49,-0.017399326765303126,0.24880617272900804,-0.25820868929814866
850,8.5,-0.02148125636886955,0.24241469734991028,-0.24782260061878825
851,8.51,-0.022775174638730872,0.22517745316705004,-0.23764436143401824
852,8.52,-0.0012190172588146776,0.2178830745327277,-0.226539540226122
853,8.53,0.011159370879667965,0.1964984903189772,-0.21533542316565502
854,8.54,0.011543957914838258,0.1720845220300631,-0.20489354451537603
855,8.55,6.460265244263899e-06,0.13720792619390637,-0.1940045820726226
856,8.56,0.0036716039343614136,0.11678531482031561,-0.18345275176098988
857,8.57,0.01082341033376044,0.08487349423122804,-0.1753769818612656
858,8.58,-0.008648119008377215,0.05207405372188625,-0.16482328924733833
859,8.59,-0.020683929347149396,0.02523486786063256,-0.15606706008087898
860,8.6,-0.03726997176678344,0.009364173019469678,-0.14624394958793563
861,8.61,-0.03551646991406415,-0.009269145923508039,-0.136993346147293
862,8.62,-0.029246376701299048,-0.03279427058658179,-0.12874602055741
863,8.63,-0.03436007900683995,-0.05825245295906758,-0.12002203659366226
864,8.64,-0.03313412645856352,-0.07766332559506715,-0.11114422419910823
865,8.65,-0.022325444456504407,-0.09694261441507188,-0.1028442747401734
866,8.66,-0.02409676556494384,-0.12724703369977924,-0.09362032964338964
867,8.67,-0.03691450970649787,-0.15367811891848793,-0.0855902186795566
868,8.68,-0.16591452119145683,-0.17054685696885882,-0.0770827142440395
869,8.69,-0.15322994599012557,-0.18102975318264097,-0.0684002252215672
870,8.7,0.3758276705276418,-0.19168680524518647,-0.06168086060481439
871,8.71,0.9309321356444871,-0.1965271518906173,-0.053965756545603184
872,8.72,0.4571546942143907,-0.2054269337100988,-0.047386267310952836
873,8.73,-0.07738868192471555,-0.20717076217660432,-0.039110800716016865
874,8.74,-0.2547205134433882,-0.21906535303686714,-0.032549296508235646
875,8.75,-0.10289998808562055,-0.22861474896702877,-0.025273379276851086
876,8.76,-0.01056076718696577,-0.23568040684686287,-0.019014972426338043
877,8.77,-0.00902266124174245,-0.2438055383859766,-0.011247851026363616
878,8.78,-0.006979205504270463,-0.255663991640815,-0.003215549545975094
879,8.79,-0.011759937122102654,-0.26120168116432557,0.005754552453708021
880,8.8,-0.0022370148524577726,-0.26705438328027564,0.014344554234490513
881,8.81,-0.010251726500008733,-0.2670597418558102,0.021733352132741277
882,8.82,-0.005373581580758013,-0.2756396634738522,0.03112797479065837
883,8.83,-0.00994869737024729,-0.28234633502075784,0.03956843644996876
884,8.84,-0.0018227084986899948,-0.28733785449184707,0.0480281558851857
885,8.85,-0.0005356730298789583,-0.2883058995703835,0.05656446100012003
886,8.86,0.0045986627802786185,-0.2926231200155328,0.06512163976413414
887,8.87,-0.0041398259739020594,-0.2942250015376989,0.07253965710974254
888,8.88,0.0014791889451552839,-0.29787161836436504,0.07848802407724732
889,8.89,0.008405657549598315,-0.29585269944375686,0.0865179369887832
890,8.9,0.019211694234936082,-0.3011170699012423,0.0929910263639484
891,8.91,0.027887562050136115,-0.30524181327620786,0.10129427550593219
892,8.92,0.03893617565052557,-0.3075317517588782,0.10556967034492787
893,8.93,0.05319256238730524,-0.31883038394311053,0.11312846507026013
894,8.94,0.06794720050131177,-0.33370461041763166,0.11789443260130554
895,8.95,0.08254691898370528,-0.3390159271985088,0.12169671303120888
896,8.96,0.08559796880094782,-0.34443748461108165,0.12794157086700225
897,8.97,0.0901987492503395,-0.3481110657431114,0.1322007558334517
898,8.98,0.0897549056567013,-0.3454136333000668,0.1386611607831628
899,8.99,0.07735789943442406,-0.339653041473674,0.144987552006248
900,9.0,0.06431469510667667,-0.32351359388344697,0.1502323029775226
901,9.01,0.04155684028500921,-0.29276512875027333,0.15664594825730027
902,9.02,0.021635223295080847,-0.24116177906603617,0.16413965154650256
903,9.03,0.01518734971222013,-0.19781286240628188,0.1724425078961406
904,9.04,0.004303850756760849,-0.12267874312246162,0.1780182073552468
905,9.05,-0.006695917547540918,-0.002348698420715,0.1877594740948293
906,9.06,-0.0028926621158838453,0.12359787744712779,0.19456576612958146
907,9.07,-0.008141415124406979,0.2867999795145671,0.20181304135316483
908,9.08,-0.00253242487341297,0.39188009764221093,0.21056607604983832
909,9.09,-0.008868193185252267,0.5045535525961428,0.21739218396183493
910,9.1,0.002063745862746678,0.6572463028327369,0.22470339653128615
911,9.11,-0.004222268345996467,0.7232288835348701,0.23213791504767942
912,9.12,-0.00560794549935175,0.8159838370766951,0.2392613413178788
913,9.13,-0.0011033525196685926,0.8992381058357011,0.24648832242498156
914,9.14,-0.002710703005091667,0.9512662417398419,0.25345564302863177
915,9.15,0.0012417731931133602,0.9843909328898801,0.25949405778556156
916,9.16,0.008541209222804389,0.9960717067297201,0.26652946460562577
917,9.17,0.0009063722404194865,1.0,0.2712264709356827
918,9.18,0.006643255752185448,0.9889414614989059,0.2776286366029115
919,9.19,-0.0006767972841509313,0.9744846088458369,0.28325079748996834
920,9.2,0.0018320308825759922,0.9464960334506378,0.2895123015346277
921,9.21,-0.00026544459444549515,0.9051070429315717,0.294993837738973
922,9.22,0.0009702612114769885,0.8669175053085153,0.30242859786186016
923,9.23,0.002142196002865602,0.8233078244327618,0.3089165543915745
924,9.24,-0.001552483161481371,0.7941490107997734,0.31542851885496376
925,9.25,-0.003883990975008248,0.7642164942339936,0.3214849837850366
926,9.26,-0.006193136462731328,0.720763822002741,0.32706960385698397
927,9.27,-0.0044266217459335,0.7034530476626494,0.33322383180025383
928,9.28,-0.012616501312466633,0.6720616149840283,0.3382152193561422
929,9.29,-0.014560349990843921,0.6448443823795511,0.34367693703903224
930,9.3,-0.006247642209163839,0.609262145277349,0.34954766526951714
931,9.31,-0.018204265356150308,0.5880176057303272,0.35426073305330835
932,9.32,-0.011133001436262046,0.5596995643626638,0.3576363256691813
933,9.33,-0.01860064820694394,0.5363824863677656,0.3629162751641441
934,9.34,-0.013681729916652147,0.5188295812548493,0.36564255259772904
935,9.35,-0.017309367880181056,0.5070649924239388,0.3699367109637715
936,9.36,-0.01808752622031367,0.49578873283993374,0.3735673642642519
937,9.37,-0.013029807821330066,0.48614033784846333,0.37837391265365183
938,9.38,-0.01605067099132628,0.485399436935914,0.3807493880044967
939,9.39,-0.015985282722244566,0.4765546358203692,0.3847478999926624
940,9.4,-0.018509436224946753,0.46815024392560034,0.3866950413523587
941,9.41,-0.013281485645618494,0.4547526315733129,0.39122399116675094
942,9.42,-0.009922675384371303,0.43350858349006993,0.395659985316722
943,9.43,-0.015652636247444403,0.4202454357093028,0.4002893363699316
944,9.44,-0.008511955247716373,0.3970537718055822,0.4045359203834281
945,9.45,0.0034338964726275457,0.36455097383652363,0.4073105148118982
946,9.46,0.020335757592021764,0.33434819210532674,0.41146553179822
947,9.47,0.01606283093772381,0.3013682802941511,0.41593748692798566
948,9.48,0.014419504304732265,0.28112607955588526,0.4201282259798437
949,9.49,0.004017744716329712,0.2596591064030563,0.42412817680482456
950,9.5,0.018806725522791747,0.22289798453448226,0.42679801309191673
951,9.51,0.006476556502835892,0.20107420644391472,0.42984421108061527
952,9.52,-0.014961799463422073,0.1680817137169748,0.434290106995455
953,9.53,-0.028097883346628515,0.12270383567557153,0.43804597873945184
954,9.54,-0.022928986471804445,0.08569950112570653,0.4405809361742888
955,9.55,-0.030408287692364908,0.0464886492396222,0.44510291389853585
956,9.56,-0.016546958002351016,0.022489121928093166,0.4482697485313219
957,9.57,-0.030317847031200492,0.0003566624977409724,0.4478258396258124
958,9.58,-0.008944596989082178,-0.02847907492858293,0.45039287295892294
959,9.59,-0.03152146017382839,-0.040846305836204314,0.4518125509013899
960,9.6,-0.005437874294033159,-0.05603241970218833,0.45208802428992156
961,9.61,-0.11028662137130446,-0.07957555862832534,0.45505220949120334
962,9.62,-0.1699596109423171,-0.10110560203424267,0.45425336984716325
963,9.63,0.13731921197921534,-0.1276468145499064,0.4542024783808807
964,9.64,0.8288539669745774,-0.14648546066962093,0.45499367191003437
965,9.65,0.6764389234038016,-0.16370557199424224,0.4546123363156108
966,9.66,0.07813185350504619,-0.1866027836396904,0.45470900525095265
967,9.67,-0.21921363389174447,-0.1948057041497748,0.45371720179451064
968,9.68,-0.1534500690258709,-0.20581974462809627,0.4535866248498681
969,9.69,0.008713757481217955,-0.2124687985287515,0.45367708080439184
970,9.7,-0.0036521163512143896,-0.21795372045657455,0.4526468018594676
971,9.71,0.013402949926149758,-0.22300162213030741,0.45316316477638535
972,9.72,-0.004789605507032424,-0.22426840101227213,0.4522296782094803
973,9.73,0.016406768031431995,-0.22947303371199138,0.4526750974332338
974,9.74,0.003986739688318299,-0.23675700470389666,0.45385065715165085
975,9.75,0.016379302623839003,-0.24556397800693194,0.45171770796385724
976,9.76,0.0007644381271447018,-0.24804272737794023,0.45083497595970773
977,9.77,0.007121265313906341,-0.25687320281463777,0.4499376532177513
978,9.78,0.00724504410875337,-0.2590276600777334,0.4493086522119109
979,9.79,0.015579486803299656,-0.2603103334296134,0.44610638416447557
980,9.8,0.01566543981282595,-0.2624747935407077,0.4464650023701222
981,9.81,0.021567891076766123,-0.2672430024571511,0.44335042388739887
982,9.82,0.016545640104012882,-0.27618898465332486,0.44135724159127826
983,9.83,0.037499423270641936,-0.2897974433666876,0.4399435136222402
984,9.84,0.040559693449872036,-0.29671855248549156,0.43740335016796755
985,9.85,0.054773747629580725,-0.3072497728149204,0.4329907039890116
986,9.86,0.055379202038262715,-0.31460073972039215,0.43117246526472114
987,9.87,0.08923494766698753,-0.3208378563066867,0.4297011713489573
988,9.88,0.08583282144831919,-0.32435077586715905,0.4258182286025322
989,9.89,0.11094572321469967,-0.3274694982110901,0.4242410856020294
990,9.9,0.10391684004266064,-0.327649745146125,0.42144929075077875
991,9.91,0.11577922930238094,-0.3276552060714346,0.417639941882776
992,9.92,0.09857745834694398,-0.32273787048667196,0.4165196858408315
993,9.93,0.08684139913919278,-0.3224273832845352,0.41411483473821353
994,9.94,0.059068837132084995,-0.3006680362054766,0.413010644269119
995,9.95,0.043226381472601355,-0.286501013326773,0.4104647401241253
996,9.96,0.03177168048347534,-0.23884005523131083,0.41138903907807534
997,9.97,0.020715942443698915,-0.17068800811867602,0.4107730489770045
998,9.98,0.014222343274349375,-0.05607937966523685,0.41103905916860933
999,9.99,0.016889114928562862,0.018209881263323017,0.41094787772197694
1000,10.0,0.011695019978419029,0.14831336767058462,0.41162988795242983
1001,10.01,0.01445446350455504,0.30370754254490595,0.4102026129200089
1002,10.02,0.011354941757736652,0.4583418753617461,0.41085779731785427
1003,10.03,0.014908624866626358,0.5485886987860673,0.4116358532029923
1004,10.04,0.017232742216141385,0.6569743213084663,0.41074944160418553
1005,10.05,0.01382155249058883,0.775802389136006,0.4100479417298531
1006,10.06,0.014085843957922515,0.8524128855284838,0.4103090624653349
1007,10.07,0.029323746944973333,0.922294030640842,0.4090677134082452
1008,10.08,0.020045829748643346,0.9514266718411893,0.41037519309351045
1009,10.09,0.019149065850355786,0.9716681740913444,0.4102782753221785
1010,10.1,0.020793902552471388,0.9839513940863536,0.4102077029017171
1011,10.11,0.02682776354412395,0.9733225049062587,0.4107475527826334
1012,10.12,0.023181192539690962,0.9566288622159344,0.4117661376812212
1013,10.13,0.028030709004652266,0.933091204632079,0.41287743035065755
1014,10.14,0.020608127393879107,0.894600256768525,0.4136105605256137
1015,10.15,0.030250878247602996,0.857258654494056,0.4142289437089935
1016,10.16,0.024691916228205737,0.8274726885110165,0.415264624255652
1017,10.17,0.024953948278309143,0.8021860303809789,0.4151857888752549
1018,10.18,0.02411351809413425,0.7565503011479049,0.4150249569508051
1019,10.19,0.023780379180274414,0.7371902179613028,0.41460996781006537
1020,10.2,0.013842811848150028,0.7008946100196717,0.41474661175437216
1021,10.21,0.01835236365226649,0.6613240618355888,0.41537680449039116
1022,10.22,0.018357620501269264,0.6207351856449799,0.41445446998212576
1023,10.23,0.016271612101519527,0.5815407363893886,0.41353359228975456
1024,10.24,0.009329448841216273,0.556376221074649,0.41319359064533745
1025,10.25,0.016780664759966625,0.5353274244033677,0.4128694186304944
1026,10.26,0.015037642411947522,0.5045855411991049,0.41148913484982563
1027,10.27,0.017077613304265486,0.4832122528796423,0.41023209695656854
1028,10.28,0.010460767588597524,0.4665637310413183,0.41008330620194516
1029,10.29,0.009376168012478403,0.45353687791525443,0.4077398485547369
1030,10.3,0.007921768493313254,0.42854897694977206,0.40839263185936703
1031,10.31,0.011636637874587024,0.41803061172881034,0.40713367179134197
1032,10.32,0.010966036077515166,0.3924716756913533,0.40646051033048985
1033,10.33,0.010809555719220858,0.3643124115357589,0.40533103868192083
1034,10.34,0.009836436443082679,0.335768479616649,0.404870058701623
1035,10.35,0.023125453297985675,0.3054352308193822,0.40436455835969437
1036,10.36,0.017826858003858033,0.28441477552789135,0.4043573893992352
1037,10.37,0.018729513632889813,0.25998493250066296,0.40320233043736226
1038,10.38,0.0332626561939604,0.22750586944240855,0.40234612379128304
1039,10.39,0.04848361228308843,0.19956166706940118,0.401443312149057
1040,10.4,0.05288505829117049,0.17655440383206739,0.4005964687071686
1041,10.41,0.04856848442163621,0.15652145894325697,0.39855047165303975
1042,10.42,0.0383421334676599,0.12193795487463716,0.39629097365433213
1043,10.43,0.05240350018824248,0.09156160330025968,0.3944224120476605
1044,10.44,0.033820170502205926,0.06555319937231772,0.3925522531501699
1045,10.45,0.013294797547957581,0.044386491308662145,0.38909526918621157
1046,10.46,-0.004006968185744139,0.008182197134623224,0.3869808755468353
1047,10.47,0.005259261547156141,-0.012457023828987453,0.3845064413372543
1048,10.48,-0.0013610835819657288,-0.031144350925478383,0.3817339319722845
1049,10.49,0.01971702712848712,-0.04160992182593808,0.3772748695244549
1050,10.5,0.005382064504572291,-0.07285606374277653,0.37437316203760795
1051,10.51,0.019723159032376817,-0.08554172952722779,0.37231405518500876
1052,10.52,0.0024187862355457257,-0.12133039283431687,0.36794060016651703
1053,10.53,0.026628596254187686,-0.15329515544962924,0.36442458133307964
1054,10.54,-0.0885858876792848,-0.18946373173976075,0.3600922239675453
1055,10.55,-0.14910418973535378,-0.21139289345869336,0.356508420199864
1056,10.56,0.165741430337061,-0.2223992244319058,0.35182581306351296
1057,10.57,0.8577735884368584,-0.22715412838411816,0.34659698789010035
1058,10.58,0.6796892840937913,-0.23697418565120587,0.341337667036735
1059,10.59,0.10643045054598785,-0.23860160850307494,0.335842784368589
1060,10.6,-0.19114092757001952,-0.24316815781736878,0.32891660000231837
1061,10.61,-0.13421651542916702,-0.24490265508463896,0.3231471853182801
1062,10.62,0.035246274892968756,-0.2589547582873955,0.3172487581459202
1063,10.63,0.02201489934928093,-0.27132670411868903,0.31006441310128674
1064,10.64,0.028677821381228284,-0.2809562841936956,0.3030733577036427
1065,10.65,0.02415999141432101,-0.2860699431502974,0.29533467243012124
1066,10.66,0.03882497841697026,-0.29347989320187506,0.2887154407682322
1067,10.67,0.026258622084758022,-0.2946122564082906,0.28192530324192394
1068,10.68,0.031780198820625716,-0.30242761466021867,0.27551712830063957
1069,10.69,0.030310464503414028,-0.3007107643707099,0.26985227679408347
1070,10.7,0.03938661174512071,-0.3110708444231916,0.26193554631405525
1071,10.71,0.032403892313392996,-0.31497227743399814,0.2557534716340954
1072,10.72,0.0373742322434318,-0.3186025451721932,0.24848831618096048
1073,10.73,0.04053042011127024,-0.3191629539329155,0.24169501375459676
1074,10.74,0.044712421321700904,-0.32218872766997403,0.23492421605218067
1075,10.75,0.048628636689879635,-0.32103603837506806,0.2266000318289003
1076,10.76,0.05587822136996506,-0.3260571056931822,0.21844050522419658
1077,10.77,0.060387717044893055,-0.32298526484352585,0.21087444732869035
1078,10.78,0.07852770128370247,-0.33020905738873135,0.20365176895792306
1079,10.79,0.08431686835600295,-0.34214462886469815,0.1956828687057117
1080,10.8,0.09863541787623538,-0.35800131488855624,0.18646216869334495
1081,10.81,0.11369611033171004,-0.36322826770305017,0.1792574399272646
1082,10.82,0.12836388706502605,-0.37896376151518607,0.16913556278488348
1083,10.83,0.1258280987167123,-0.3880509317166971,0.16072377609067343
1084,10.84,0.12140084605498741,-0.40386541918495283,0.1533299293523921
1085,10.85,0.11428337667551676,-0.401862820812054,0.1436473237131174
1086,10.86,0.10452179818873933,-0.41249589196012604,0.13733037421164107
1087,10.87,0.08210579013971171,-0.3939058518195861,0.13013120366980005
1088,10.88,0.0635550061647339,-0.3808108882885337,0.1234578162204193
1089,10.89,0.05360530495851126,-0.3349881663733991,0.11682210243265287
1090,10.9,0.04091806137452535,-0.26793968450156064,0.10963798122660555
1091,10.91,0.036679336947925155,-0.15747978338833984,0.10328612695225722
1092,10.92,0.03584903052668586,-0.0687124642062608,0.09599392360354234
1093,10.93,0.03669770910185101,0.03524754803101528,0.09185897307309521
1094,10.94,0.029696991285660553,0.20237100059881624,0.08472778411833234
1095,10.95,0.03611643876516004,0.28189631178178226,0.07962465898144339
1096,10.96,0.035978515349162306,0.4027152028768503,0.07010845225977479
1097,10.97,0.03535882530829471,0.5197000063041219,0.06461308129063939
1098,10.98,0.038756144860482504,0.6185125912961803,0.058843426393190505
1099,10.99,0.03863406688011849,0.6690685614775247,0.05051986772675761
1100,11.0,0.04130055172510187,0.7171444161790698,0.04367569934127914
1101,11.01,0.046943544728332336,0.7586041424222916,0.03528889154191796
1102,11.02,0.052063014671310144,0.7748027717601085,0.026947131233606248
1103,11.03,0.04896781751065588,0.7845527563762452,0.018493783497773492
1104,11.04,0.04880566858039423,0.7777239011780505,0.008598359774188864
1105,11.05,0.04590302467301007,0.7661851540984406,0.0003965746395474876
1106,11.06,0.0450504954475897,0.737464756366692,-0.010713142351513417
1107,11.07,0.04409820658207757,0.7011992270454525,-0.020182419848379905
1108,11.08,0.04203346020269054,0.6680033091453986,-0.03056897929242796
1109,11.09,0.0455884096599948,0.6397970083950052,-0.041366376275870115
1110,11.1,0.04748598490991014,0.5822917814518109,-0.05221524162190948
1111,11.11,0.03921035553625912,0.5569146515502599,-0.06365153671879073
1112,11.12,0.04053219237704355,0.5152859844303972,-0.07298596175510655
1113,11.13,0.035440588509122115,0.4772065332791033,-0.08405064438077132
1114,11.14,0.039717968236726804,0.441860498022869,-0.09572771263971638
1115,11.15,0.03148871370814436,0.405492508919671,-0.10396200701650377
1116,11.16,0.036133830675631064,0.3756407761664768,-0.1126902963743583
1117,11.17,0.02672739324873394,0.3526885304726221,-0.1230770893485474
1118,11.18,0.04098559581172166,0.31351371721719545,-0.13313497894182377
1119,11.19,0.02885411302470147,0.30177854689490907,-0.14372668380947334
1120,11.2,0.030786289122179008,0.2770450518881275,-0.15393887931257136
1121,11.21,0.03158465515387809,0.259249037501469,-0.16397618310156487
1122,11.22,0.025526564393278103,0.23636475837532742,-0.17393409249671563
1123,11.23,0.02969320608705223,0.21966019805146814,-0.1834100266401051
1124,11.24,0.0295066561512646,0.20386415558352905,-0.1940298192187373
1125,11.25,0.02979716482122477,0.19480359935293495,-0.20296194100317433
1126,11.26,0.033600085992347206,0.1690243311989453,-0.21287351229203136
1127,11.27,0.021968251774128332,0.1609147424904556,-0.22321693593110387
1128,11.28,0.028118842921953446,0.13845241533029048,-0.23471462409590882
1129,11.29,0.04898157408848032,0.11974940254711786,-0.24346296203632817
1130,11.3,0.04891256854711727,0.08981854032419714,-0.2538107686312951
1131,11.31,0.056097203851962756,0.07616600987456837,-0.2647663033668473
1132,11.32,0.05295903622589535,0.04073258715285327,-0.2759645354420754
1133,11.33,0.05207240912237885,0.0068457305808834025,-0.28710975157984553
1134,11.34,0.056724660960944126,-0.037266624238972174,-0.29881502109815045
1135,11.35,0.03545384093668381,-0.060757123842140104,-0.3112832508418706
1136,11.36,0.014128390937065692,-0.09825098920890851,-0.3227466486464027
1137,11.37,0.01271596607715662,-0.1393315308424277,-0.3350639909974684
1138,11.38,0.018405166888721056,-0.17888333281814905,-0.34726521617715905
1139,11.39,0.020121850484809488,-0.22083561030093984,-0.360124847244992
1140,11.4,0.015563758263255938,-0.251790384120315,-0.3735768383486161
1141,11.41,0.019434679696755382,-0.27725433627330653,-0.385651518278192
1142,11.42,0.019445611627589024,-0.3231109017089405,-0.39824369068116483
1143,11.43,0.024737174585084072,-0.3413621813088112,-0.41166893129891746
1144,11.44,0.014397782691089454,-0.3696009904274044,-0.4262972642149561
1145,11.45,-0.12314282812457093,-0.39508939567287465,-0.43908512613327816
1146,11.46,-0.10311633006921084,-0.42007002821814915,-0.4535508783138679
1147,11.47,0.40272452073463244,-0.4422632134368437,-0.4657144991426578
1148,11.48,0.9326501849644745,-0.46161864607810527,-0.4788504017206751
1149,11.49,0.39636600288184604,-0.478251563656466,-0.4933775334654508
1150,11.5,-0.0255200783695625,-0.5111407680491392,-0.5076638167610511
1151,11.51,-0.19433242169723525,-0.5228846710145282,-0.5210931354749765
1152,11.52,-0.11445158661947422,-0.5500257587537042,-0.5351583662743286
1153,11.53,0.029589215179223742,-0.5688410265278259,-0.5486492982557085
1154,11.54,0.02981618277838381,-0.5865746502132333,-0.5629723393089776
1155,11.55,0.039526751604479674,-0.5893629026421141,-0.5753805382572599
1156,11.56,0.032586114575307745,-0.5910653799846135,-0.5895945579905674
1157,11.57,0.043813886006510226,-0.5866572949736982,-0.6026003992745009
1158,11.58,0.0300611679737283,-0.5838377805413998,-0.6168726783990914
1159,11.59,0.038189165480330294,-0.5775969477106622,-0.6304618487311944
1160,11.6,0.03904907113070427,-0.5782196764685769,-0.6432819080766485
1161,11.61,0.04306085120683492,-0.579192866474715,-0.6584994652835515
1162,11.62,0.040870722430274356,-0.5919436633231261,-0.6723070675536136
1163,11.63,0.04941457237246311,-0.6025940965477279,-0.6874831275412469
1164,11.64,0.04689170344596565,-0.616841674484398,-0.7017505527107529
1165,11.65,0.05280120673835353,-0.6261939137266569,-0.7160201858180248
1166,11.66,0.0516542535952277,-0.6481376522730357,-0.7300612035410559
1167,11.67,0.06131428949401671,-0.6516357474874105,-0.7438697321376223
1168,11.68,0.06902960999290558,-0.6697152003178728,-0.7582044660860408
1169,11.69,0.07853717147223517,-0.6772316073280739,-0.7714188077329114
1170,11.7,0.08265193898217482,-0.6947291398508146,-0.7851029193002732
1171,11.71,0.09452959255084631,-0.7055604368773021,-0.7990506599171889
1172,11.72,0.10009622427096627,-0.7209891724503,-0.8108470038654793
1173,11.73,0.10660707164025034,-0.7218704468467859,-0.8235940190537335
1174,11.74,0.10550237887568417,-0.7326115260016786,-0.8356267013094868
1175,11.75,0.10703368684952969,-0.7213617825214974,-0.8455532445416397
1176,11.76,0.10110608299752942,-0.7247524785993916,-0.8542294338482093
1177,11.77,0.08976345055102217,-0.712094325469459,-0.8640346603748612
1178,11.78,0.06818493735401822,-0.7109123653300417,-0.8718644775652277
1179,11.79,0.06308217592433012,-0.6767714261850155,-0.8770599535825085
1180,11.8,0.04726129857416894,-0.6619917335295602,-0.8834467380381553
1181,11.81,0.05207108598353798,-0.6093375786145446,-0.8872385023925428
1182,11.82,0.04084303002050607,-0.5446937477655899,-0.8917279866682548
1183,11.83,0.03926879394810428,-0.42551485603459843,-0.8957580297076684
1184,11.84,0.034053309985579226,-0.346398492051361,-0.8987881440995532
1185,11.85,0.0392748772087645,-0.23170090594188728,-0.9013390727181143
1186,11.86,0.03142346941332178,-0.08977714621434853,-0.9041718679776227
1187,11.87,0.03690689039945782,0.04863163313241237,-0.9062876992528202
1188,11.88,0.038041778175964935,0.13582677279492755,-0.9103175795115686
1189,11.89,0.0397628452448659,0.21429346930966695,-0.913097687782849
1190,11.9,0.040758131797615504,0.30417720589027075,-0.9153690453936236
1191,11.91,0.04934381281485177,0.35693224719801847,-0.9176614935769074
1192,11.92,0.039388266677899915,0.39301902506005815,-0.9206055427848158
1193,11.93,0.04781439562034069,0.4048575437649313,-0.9219517045214191
1194,11.94,0.05749892078081164,0.41711384991751754,-0.9252279904240893
1195,11.95,0.05788789714438363,0.41015735699246014,-0.9269537119022752
1196,11.96,0.054824003322741885,0.39599446462416704,-0.9295534921525092
1197,11.97,0.054870437004037674,0.3658205763405229,-0.9309997099957019
1198,11.98,0.054339260422503914,0.3250035640029479,-0.9325322713865026
1199,11.99,0.05557571867253847,0.2952925347291059,-0.9357593454795345
1200,12.0,0.04757906934438507,0.2523027462929571,-0.935414593365208
1201,12.01,0.05584748028117988,0.20324918622898813,-0.9380080440200548
1202,12.02,0.0473844437279148,0.15738259007751992,-0.9384482506411039
1203,12.03,0.04623118461356749,0.12614337384060284,-0.9403671956226645
1204,12.04,0.05104358919298746,0.09369934686639346,-0.940112825815249
1205,12.05,0.0515659202929546,0.05296433209374441,-0.9397418115714636
1206,12.06,0.04906172911966252,0.023454758135229927,-0.9409201906134227
1207,12.07,0.04778188075080672,-0.014398256486892552,-0.9394986739417134
1208,12.08,0.04497047548036585,-0.030988549541110754,-0.9387859474339636
1209,12.09,0.05083358764813114,-0.054025668244428386,-0.9372047515608987
1210,12.1,0.039229922725971804,-0.0780946534747339,-0.935559486689615
1211,12.11,0.0491867553557719,-0.09867470400378303,-0.9343539101570127
1212,12.12,0.04212120204175168,-0.107244888508113,-0.9324763754671225
1213,12.13,0.04989271528020224,-0.11469022981724934,-0.9293764336542842
1214,12.14,0.053638252062366686,-0.12503170603033098,-0.9262569139050948
1215,12.15,0.05749484479808146,-0.13556742237667876,-0.9235937738275217
1216,12.16,0.048746801401166044,-0.13758780428914322,-0.9195789149354775
1217,12.17,0.05082874780513898,-0.14389858028232994,-0.9158981312880644
1218,12.18,0.07114374897329025,-0.15111625479043453,-0.9102116944483752
1219,12.19,0.08353679052826704,-0.16869237470158502,-0.9058885414131824
1220,12.2,0.07355621411366621,-0.17969798798168443,-0.9002503533309385
1221,12.21,0.0698112034656731,-0.19693178922536486,-0.8964024198068564
1222,12.22,0.06848832299115065,-0.2229019467134453,-0.8924781639375331
1223,12.23,0.08528192608528531,-0.2631603366281359,-0.8879573290799625
1224,12.24,0.06638904086946637,-0.29153114895210347,-0.8824415239649401
1225,12.25,0.05781885647255584,-0.32828551305461795,-0.8768656752726414
1226,12.26,0.040227397804985965,-0.37703150821844844,-0.8723610793002936
1227,12.27,0.0565330837846816,-0.42243061449836183,-0.8669240526859923
1228,12.28,0.04360414019164208,-0.45497244315021573,-0.8613492284476838
1229,12.29,0.05335872483954297,-0.48439082378298276,-0.8550436508228558
1230,12.3,0.04509154407792863,-0.5224137990869636,-0.8484276828827954
1231,12.31,0.056631721769332684,-0.5329053497221854,-0.8416461157787314
1232,12.32,0.04411135414265594,-0.5570433497775636,-0.8352621845578324
1233,12.33,0.07357861509138573,-0.576033180325529,-0.8286815094819955
1234,12.34,-0.05492086167522918,-0.5984982858462414,-0.8212663493112548
1235,12.35,-0.11151639429871657,-0.6245874231497016,-0.8142735772134518
1236,12.36,0.25676122435501886,-0.6479393440469414,-0.8065114595046416
1237,12.37,0.9515482952794572,-0.6625403903934488,-0.7993326131643537
1238,12.38,0.659222546435964,-0.690779963936321,-0.7913207483152638
1239,12.39,0.090757876172269,-0.7068126367054938,-0.783301311761229
1240,12.4,-0.12826544066302764,-0.7197646422098991,-0.7734820528367512
1241,12.41,-0.12045328997609431,-0.7208470734153283,-0.765378566663295
1242,12.42,0.06613475421531713,-0.7283022593828817,-0.7563352188628163
1243,12.43,0.06607598951506272,-0.7287717138500506,-0.7464270799784185
1244,12.44,0.07613337725774022,-0.7373179889332715,-0.737886650153388
1245,12.45,0.06630734069032469,-0.7372614234221618,-0.7268015247159528
1246,12.46,0.07792456719172854,-0.7500410983818316,-0.7170383715348598
1247,12.47,0.07361279104076472,-0.7509868766201111,-0.7082798228507161
1248,12.48,0.0882281249287199,-0.7534792292213077,-0.698127095265456
1249,12.49,0.07347469870448761,-0.7532193199933691,-0.6876344445012905
1250,12.5,0.09300862083392945,-0.7557331956172599,-0.6771518777064549
1251,12.51,0.08059248529252867,-0.7496000359885272,-0.6678346297429218
1252,12.52,0.0917373085902545,-0.7546623893997029,-0.6583162034710963
1253,12.53,0.09087423077611044,-0.7445363315766718,-0.6494916295759706
1254,12.54,0.09750037566586384,-0.7472679280446926,-0.63958291396275
1255,12.55,0.09970141384547221,-0.7419009197953864,-0.6299848721363965
1256,12.56,0.09832875739771034,-0.743621908654944,-0.6218870513661406
1257,12.57,0.11182549479852391,-0.7398039290622217,-0.6124904731597338
1258,12.58,0.12585443316215258,-0.7395095330500205,-0.6029955318140199
1259,12.59,0.13167406480911528,-0.7214681821607597,-0.5924761133733099
1260,12.6,0.1463359354823355,-0.7160620737404834,-0.5839212606211476
1261,12.61,0.1561253795165678,-0.7066732106428996,-0.5745548939250837
1262,12.62,0.1650842047243272,-0.7080711105544547,-0.5652512944726009
1263,12.63,0.1655804534841984,-0.6981357736242911,-0.5551999549667481
1264,12.64,0.1702359890549583,-0.6998484234283192,-0.5454905916276119
1265,12.65,0.1502851891972682,-0.6885510573898681,-0.5345012336431242
1266,12.66,0.14597421510626818,-0.6863578470018931,-0.5239632807145744
1267,12.67,0.12384847879073348,-0.6518869304596759,-0.5125680375557135
1268,12.68,0.11034311067146105,-0.6335580055852019,-0.5009716168524514
1269,12.69,0.09160608059647783,-0.5798966613190141,-0.4878711805100436
1270,12.7,0.0905569145567168,-0.5109666829524476,-0.4741630832121643
1271,12.71,0.0909187055658637,-0.3899433348896413,-0.46104128140101797
1272,12.72,0.08691738855906322,-0.30764449952854694,-0.4460099819931486
1273,12.73,0.08256595702655495,-0.1895523239197566,-0.4320097996682673
1274,12.74,0.0813292708980564,-0.03409557630882828,-0.41646674977910786
1275,12.75,0.08368550659158389,0.12687808488745828,-0.4019309475223532
1276,12.76,0.08646544297351957,0.23494480125876063,-0.385889354715572
1277,12.77,0.08087324636870911,0.32588616948603466,-0.3707819538835854
1278,12.78,0.08202142702049565,0.4429296353663958,-0.355584656338939
1279,12.79,0.09205462937355254,0.5095284880056415,-0.3390300572647046
1280,12.8,0.09674980585288824,0.5529775881852281,-0.32420757996596733
1281,12.81,0.09037971871637551,0.5740519462253622,-0.30849184501585003
1282,12.82,0.09522918291284362,0.6065349350680617,-0.2931359703217957
1283,12.83,0.09263131581157062,0.6102146433570734,-0.2777921892783369
1284,12.84,0.09874733365214067,0.6200445118952023,-0.263756930950084
1285,12.85,0.0982196932887356,0.6094295586594337,-0.24885340982190754
1286,12.86,0.10116162681156995,0.6070394677044106,-0.23548129684246463
1287,12.87,0.09751730319472238,0.5916034674598402,-0.22076357952181871
1288,12.88,0.0938519596767601,0.5873093020864222,-0.20732722560615813
1289,12.89,0.09545469022597786,0.5673541366620273,-0.19265638711005825
1290,12.9,0.09821512158764137,0.5495062730167422,-0.18007055842611983
1291,12.91,0.09627456559379224,0.5249908569199122,-0.16667214369751043
1292,12.92,0.09656213100255616,0.5091639424638488,-0.15392819871440247
1293,12.93,0.09485852740094534,0.48901763779282065,-0.14160227199647626
1294,12.94,0.09299386169438266,0.45781942716192847,-0.12936830184505108
1295,12.95,0.08467839221155224,0.4403759977596577,-0.11720391861603377
1296,12.96,0.08490844118202531,0.41761706328649895,-0.10635167203942339
1297,12.97,0.08891159686689731,0.3922604110677211,-0.09557042070824373
1298,12.98,0.08288838039255457,0.3754333990371573,-0.08389095853812001
1299,12.99,0.0882294478416216,0.366470703272545,-0.07396972482410587
1300,13.0,0.08217830864914004,0.3568884894536486,-0.062418235278437074
1301,13.01,0.0827069161276354,0.3467442530450408,-0.05308412998731798
1302,13.02,0.08641906464761549,0.3387772147866891,-0.043310364439185255
1303,13.03,0.0853995810876018,0.33251774353693697,-0.032962261532196925
1304,13.04,0.08360500457006874,0.32871368046458915,-0.02214774569918972
1305,13.05,0.08161396516519082,0.31941198868534254,-0.014230513217170615
1306,13.06,0.08706380707926377,0.30663020683385955,-0.002634154780366601
1307,13.07,0.08599242247254438,0.2863699816894403,0.00750465349803672
1308,13.08,0.09225772476800578,0.27502173058740137,0.016403800478915685
1309,13.09,0.09862169929915922,0.2615723912323726,0.026224556851543922
1310,13.1,0.08097635479296965,0.23848805466305514,0.03671421267316136
1311,13.11,0.08789944798798736,0.22324399730346056,0.04581820764484462
1312,13.12,0.12015423359595605,0.20385113944164707,0.05568485480537331
1313,13.13,0.12855935788906786,0.1733410313810019,0.0661083994829038
1314,13.14,0.11616393538598899,0.14561982937395637,0.07583241892898487
1315,13.15,0.11650312097906179,0.10740440143806229,0.08534781038906486
1316,13.16,0.11093011523151383,0.08039832243491407,0.09489431609078225
1317,13.17,0.11503839279112348,0.05008772104974983,0.10469442456005225
1318,13.18,0.10417694942198845,0.003511501537207261,0.11452492500703976
1319,13.19,0.08967914506410757,-0.01925225819739889,0.12519949706669006
1320,13.2,0.07347669462879393,-0.053675352548865,0.13421544740848734
1321,13.21,0.0795921396825625,-0.0877166083742962,0.14406073778055228
1322,13.22,0.07295934688299122,-0.1144758682518271,0.15257986073395555
1323,13.23,0.07777980833906535,-0.1390261277896006,0.16218238973610813
1324,13.24,0.07854779139455044,-0.1530603327643503,0.1694218573023257
1325,13.25,0.08554772655804314,-0.17058424839510772,0.1778322632487935
1326,13.26,0.07661751278857554,-0.19717617074353666,0.18498743055958827
1327,13.27,0.07935636866207155,-0.21047635725142028,0.1930217554596111
1328,13.28,-0.040029059141514174,-0.23827039716806614,0.20000345622632248
1329,13.29,-0.05537908322713486,-0.26194547828320713,0.2066128563519105
1330,13.3,0.39837446669164317,-0.2841149032846368,0.21316274410555872
1331,13.31,1.0,-0.29601549477722566,0.21903426450702732
1332,13.32,0.6283563230721859,-0.30492888381537575,0.2240706303750476
1333,13.33,0.057361678335670324,-0.31599647822992133,0.2309939099213772
1334,13.34,-0.147286292136303,-0.3176203267120668,0.235254722555256
1335,13.35,-0.007447176087866047,-0.3180713140490914,0.2410526526628083
1336,13.36,0.10164955702189037,-0.3237665353914719,0.24655539529815573
1337,13.37,0.09694636788704718,-0.32960192499188096,0.25268886236013105
1338,13.38,0.09942988443519477,-0.3366421793789938,0.25932777770846094
1339,13.39,0.09250876686669429,-0.34765871404493676,0.2652627108540347
1340,13.4,0.1009454928518593,-0.356348894472975,0.2717193441683053
1341,13.41,0.10128304029373839,-0.36683529885891,0.2795125602814593
1342,13.42,0.10384669563773945,-0.3856486280950466,0.28521678323437927
1343,13.43,0.09574340208311795,-0.3957903956312251,0.29301698436750784
1344,13.44,0.10067641202436933,-0.40835389070755285,0.2982172604283172
1345,13.45,0.10018642718564992,-0.42408433261469364,0.30588796285403674
1346,13.46,0.1076556951341404,-0.43511797851818357,0.3107518455378021
1347,13.47,0.10804178020963512,-0.45033630040922096,0.3157984872261326
1348,13.48,0.11541906693039933,-0.4638031145883028,0.3207455409154898
1349,13.49,0.11436695979313971,-0.4736541445451075,0.32478545652704977
1350,13.5,0.13283104768821,-0.4892576308898828,0.32992210758425206
1351,13.51,0.1351545698395071,-0.49427392990159696,0.33392060746685165
1352,13.52,0.15212231910659157,-0.5064203432544316,0.33741035341591813
1353,13.53,0.16447130717122757,-0.5143437042038579,0.3410268828487128
1354,13.54,0.177623091940728,-0.5242420607030677,0.3443031753147085
1355,13.55,0.18967824342415934,-0.5295032331784693,0.34716902284449164
1356,13.56,0.1985086761953794,-0.5317437611865407,0.3504165101900861
1357,13.57,0.20941824497497566,-0.5360782200639689,0.3546882075085273
1358,13.58,0.1919400723802039,-0.5379285594502308,0.35691400650707505
1359,13.59,0.1891199725478022,-0.5322249758588783,0.35945656197245224
1360,13.6,0.17083565182082594,-0.5243248918714133,0.3622213238920401
1361,13.61,0.14864804227371364,-0.4851891731988694,0.3655777322660025
1362,13.62,0.13480230560479556,-0.4340031898688818,0.3686338915335407
1363,13.63,0.12141069689326876,-0.3421658117969597,0.3722563234811579
1364,13.64,0.11062909802485363,-0.265583291959863,0.3763675521990524
1365,13.65,0.11116711942769851,-0.16833642276636823,0.3802180454097106
1366,13.66,0.10565717600214763,0.0017638874280682447,0.38439158676688895
1367,13.67,0.1003274558983716,0.09404586630368944,0.39068080626670376
1368,13.68,0.10542230697874184,0.2354909303060408,0.3951985554684426
1369,13.69,0.10470800473479354,0.391351875190406,0.39972597590994763
1370,13.7,0.09942861834209903,0.5193697721445518,0.4041715118207706
1371,13.71,0.10174216664381253,0.6398763651861233,0.40865880129170334
1372,13.72,0.10339764367776322,0.7023612394378635,0.4128359560818124
1373,13.73,0.10548522477824228,0.7579797880291611,0.4179495131716537
1374,13.74,0.11433199989629518,0.814646358799195,0.4218479625634796
1375,13.75,0.11449846362635774,0.8414748526680272,0.4260841773554588
1376,13.76,0.11650168362994338,0.861223988232028,0.4309212322872165
1377,13.77,0.11349094106387175,0.8587900966190128,0.4355949654132411
1378,13.78,0.11196829521856923,0.8595633183768813,0.4395131834450453
1379,13.79,0.11649946025075694,0.8406801228376065,0.442871638519123
1380,13.8,0.11245284284283637,0.8315578907259161,0.44505648641080564
1381,13.81,0.11511079713675353,0.810115154024682,0.4476666318365044
1382,13.82,0.11300513446763644,0.7870171676289567,0.4492233070164346
1383,13.83,0.11093566543963403,0.7573230249705021,0.45193354743381725
1384,13.84,0.1106617210731388,0.7407991667434319,0.4536915658905043
1385,13.85,0.11197143394472618,0.7165271319486435,0.45569762432533195
1386,13.86,0.10947526893055887,0.6840004091511659,0.457438833592405
1387,13.87,0.10757025056708,0.6476105591988037,0.4603934288956309
1388,13.88,0.10322244195292989,0.6264388424085898,0.46223946623933243
1389,13.89,0.10413107806524466,0.6027394807523924,0.4639851306080819
1390,13.9,0.1011545257509564,0.5766959968690503,0.46629641262205795
1391,13.91,0.10021657820174304,0.5525219742330617,0.46906065724220314
1392,13.92,0.09398061591432073,0.5318298782463012,0.47045807918527943
1393,13.93,0.0901799268470664,0.5213893407557346,0.47171688985581717
1394,13.94,0.09708438427190315,0.49776834412864573,0.47217861343004625
1395,13.95,0.08992444802335667,0.48716669203109375,0.4737625271488054
1396,13.96,0.09783956462484227,0.4708993823523035,0.4748167205663632
1397,13.97,0.09820543878589373,0.4485190326977619,0.47474541091198885
1398,13.98,0.09403274762433557,0.4280790719927932,0.47590332256632306
1399,13.99,0.0918740010967848,0.4178833543573521,0.47474956476695235
1400,14.0,0.09082727056646554,0.40225113501882925,0.47481293514893264
1401,14.01,0.08777074798570227,0.388802197012355,0.4737536042291713
1402,14.02,0.08914573435266143,0.3801631286008478,0.47319089835509176
1403,14.03,0.09027820014683001,0.3734426438805581,0.47221944154271234
1404,14.04,0.08963539012186092,0.3674937132106725,0.47258358403719797
1405,14.05,0.09422015906648881,0.35147228290797744,0.4715235921384425
1406,14.06,0.09246469403906632,0.33538707037635423,0.4714906913865628
1407,14.07,0.10492115622253785,0.30144721170721794,0.4719202047131232
1408,14.08,0.13405423794740348,0.27823413552321735,0.47118001191639125
1409,14.09,0.1241178151641908,0.2375852789241017,0.46967255933413565
1410,14.1,0.12224470723906511,0.18377095989322864,0.4692353962764013
1411,14.11,0.10861922201639401,0.12709289598507786,0.4703309746352481
1412,14.12,0.12892730676705888,0.09032324388524328,0.46826665230557285
1413,14.13,0.11024243187389673,0.05700871470887185,0.46867542364794623
1414,14.14,0.09659806996054333,0.016966157916119,0.47004814989559934
1415,14.15,0.06313106614178107,-0.00822868742371468,0.4696353412151674
1416,14.16,0.08247896924374652,-0.026525877580713224,0.46986641439295607
1417,14.17,0.07575273912068933,-0.042511947585833744,0.47052449854094663
1418,14.18,0.0796349014019789,-0.07218382643497923,0.4712282295002415
1419,14.19,0.07512263979214251,-0.10086916607587887,0.4724297238119846
1420,14.2,0.08542088874078449,-0.12340012421934163,0.4742683721814072
1421,14.21,0.07532935692758519,-0.14393649840845896,0.4745926092733792
1422,14.22,0.09744348508065753,-0.17229336175402674,0.4764836329957231
1423,14.23,0.039749186586671766,-0.1833110933913073,0.47751387255584365
1424,14.24,-0.07031814899613026,-0.19150629382725678,0.4793220739450875
1425,14.25,0.013756964896424641,-0.19383114081350958,0.47985255277156597
1426,14.26,0.6660858201739613,-0.19997878004599512,0.48213215342458854
1427,14.27,0.9723455315628503,-0.202945314222202,0.483570768270222
1428,14.28,0.39728704187424935,-0.21294628812833621,0.48547347200546603
1429,14.29,-0.027016337358926414,-0.21350241640053227,0.4876564380391203
1430,14.3,-0.13340847610053638,-0.22539530904587832,0.4903895497550692
1431,14.31,0.07058154491144591,-0.22754308395627207,0.4929780211660026
1432,14.32,0.10228009889389009,-0.2319104366689951,0.49591800427999366
1433,14.33,0.10746300666235527,-0.23309025279953635,0.49812520742811606
1434,14.34,0.09749675207753188,-0.23746525998593637,0.5003654570490663
1435,14.35,0.10535391445542733,-0.2401563128121123,0.5022994756781399
1436,14.36,0.09935394945420119,-0.24655180795332518,0.5033724243111849
1437,14.37,0.10881638221481509,-0.2512671815116684,0.5034361344283568
1438,14.38,0.10343589970399114,-0.26275510387137535,0.5041597582218044
1439,14.39,0.10546659204620266,-0.26800444529198475,0.5043049351132358
1440,14.4,0.10279158245473614,-0.2740279138627921,0.5020520544427014
1441,14.41,0.11373049411181149,-0.27896609154865304,0.49981740639725875
1442,14.42,0.10761434527336776,-0.29011734165510705,0.4995750140138403
1443,14.43,0.12113536547992629,-0.2968538404003394,0.49638047208526626
1444,14.44,0.11476176244890525,-0.3053781528408064,0.4926496200529594
1445,14.45,0.12599238092367362,-0.31458190749528314,0.4914376165105888
1446,14.46,0.1379532877685186,-0.33375777475618823,0.48726642616745697
1447,14.47,0.14741896578557398,-0.35065146671921044,0.4839302744071937
1448,14.48,0.15931543894098857,-0.3686349033390866,0.4812375668166235
1449,14.49,0.17490672087235404,-0.3784933369042708,0.4779186619458998
1450,14.5,0.1848277467187323,-0.39570770476280115,0.4753002547974035
1451,14.51,0.19924428036437616,-0.39835047846442273,0.4723307949925237
1452,14.52,0.20125105156918024,-0.4109180754079699,0.47049420610100806
1453,14.53,0.20838215595410525,-0.40634720526713386,0.4688393406879527
1454,14.54,0.19418713554983363,-0.4117700347706829,0.4662607540065633
1455,14.55,0.18990459434353257,-0.39377789143267494,0.464371474619656
1456,14.56,0.16541924640210437,-0.393908941282893,0.4632984062496314
1457,14.57,0.1500759887429927,-0.3614964794686111,0.4631941682174499
1458,14.58,0.1275218721837823,-0.32627215219013783,0.46452604687032284
1459,14.59,0.12036656475699664,-0.23395009542990736,0.466160329239158
1460,14.6,0.10747080506707973,-0.1713730123877117,0.46536365807228425
1461,14.61,0.11367048654359849,-0.06953066122077564,0.46728365192704535
1462,14.62,0.11101790405517943,0.0656853273765658,0.4688579954279309
1463,14.63,0.10761325024955799,0.22500621003476512,0.47054548591574086
1464,14.64,0.09991534966646964,0.3301938084149479,0.4738085431982795
1465,14.65,0.11270989669240702,0.44380743891431645,0.4746855166220102
1466,14.66,0.11096610089439654,0.5828977789805927,0.4760084735917434
1467,14.67,0.11390781369520622,0.6842815702416494,0.4772585163548254
1468,14.68,0.10964609448126318,0.7552634601038984,0.4790354662591043
1469,14.69,0.11559898702136952,0.7975380203275073,0.4813443170870884
1470,14.7,0.10635818142544955,0.8558575061743092,0.4830792833834305
1471,14.71,0.12316055484511017,0.8676007613333971,0.4856332834350251
1472,14.72,0.11913095064654686,0.8835367198330002,0.4858270321866513
1473,14.73,0.12628035001945617,0.8727159446100498,0.4871835459516814
1474,14.74,0.11343781984895267,0.8714059912737472,0.48825902142231525
1475,14.75,0.11887989461897439,0.8415958347128674,0.48788825323610246
1476,14.76,0.12391982900996672,0.8290346438523508,0.4881365251332743
1477,14.77,0.11955311466847364,0.8030260856333631,0.4870327553035258
1478,14.78,0.11861063382196123,0.7764929395193343,0.48601285438963815
1479,14.79,0.11825890294189859,0.7313114878947717,0.4839268175714033
1480,14.8,0.11368726276434776,0.7068508897150017,0.4838139940234873
1481,14.81,0.11508455221450088,0.6662418401629693,0.4803269937382673
1482,14.82,0.11899317833112427,0.6212476640899539,0.47983367401125027
1483,14.83,0.10881257203891914,0.5721142492447377,0.47776879027291547
1484,14.84,0.10590350362756096,0.5434504187306717,0.47724561394189635
1485,14.85,0.11026012673430316,0.5125234465340502,0.4764269637180593
1486,14.86,0.10648243442251422,0.47885300535210557,0.47451174735235374
1487,14.87,0.1117831569131767,0.4551433255681901,0.47426782605390533
1488,14.88,0.10695624515348848,0.44445678846060793,0.47359240716520623
1489,14.89,0.10747935814508912,0.43156477706859775,0.47465479745604716
1490,14.9,0.1005480167267238,0.4216522380887119,0.47384815373917993
1491,14.91,0.11191068209501817,0.4107491487174761,0.4743065986101604
1492,14.92,0.10469728283809049,0.40289362614469887,0.473395787846988
1493,14.93,0.10288364478785675,0.3885346956266953,0.47225546677676106
1494,14.94,0.10160344596601557,0.3644937387273041,0.47123155393237637
1495,14.95,0.10661363967200278,0.3315372856735005,0.46967991829499495
1496,14.96,0.10306789965532669,0.3131793714898713,0.4692348591476654
1497,14.97,0.10674471416078327,0.28594755579291986,0.46469904796732525
1498,14.98,0.10248910065787177,0.2563337553967717,0.4627821950363244
1499,14.99,0.10286141897649177,0.22535893926110728,0.4601388615214428
